 TEXTURE AT STRAIN =    1.0000
  0.947   1.221   0.864 
   90.00   90.00   90.00  
 B   8192
            15.80600            68.52300            11.43400             0.00098
            27.09900            64.17100            14.31500             0.00098
            32.54600            64.56000            15.65700             0.00098
            36.23700            66.33700            17.36000             0.00098
            39.54000            68.81000            19.57200             0.00098
            43.04800            71.86100            22.42900             0.00098
            46.74000            75.11900            25.69800             0.00098
            50.48600            77.55900            28.11400             0.00098
            55.83900            78.30500            27.83500             0.00098
            70.97500            78.72700            19.58400             0.00098
            90.55000            87.04700             5.60000             0.00098
            99.30400            92.23300             5.86700             0.00098
           116.29600           101.17100            19.09800             0.00098
           129.72400           104.33100            23.64300             0.00098
           136.71600           106.92400            21.56900             0.00098
           144.83700           105.44600            15.45000             0.00098
           153.51100            72.47800           348.26700             0.00098
           161.71600            74.73600           351.02600             0.00098
           171.40000            80.78700           356.84900             0.00098
           180.28200            79.55500             2.18600             0.00098
           195.80600            68.52300            11.43400             0.00098
           207.09900            64.17100            14.31500             0.00098
           212.54600            64.56000            15.65700             0.00098
           216.23700            66.33700            17.36000             0.00098
           219.54000            68.81000            19.57200             0.00098
           223.04800            71.86100            22.42900             0.00098
           226.74000            75.11900            25.69800             0.00098
           230.48600            77.55900            28.11400             0.00098
           235.83900            78.30500            27.83500             0.00098
           250.97500            78.72700            19.58400             0.00098
           270.55000            87.04700             5.60000             0.00098
           279.30400            92.23300             5.86700             0.00098
           296.29600           101.17100            19.09800             0.00098
           309.72400           104.33100            23.64300             0.00098
           316.71600           106.92400            21.56900             0.00098
           324.83700           105.44600            15.45000             0.00098
           333.51100            72.47800           348.26700             0.00098
           341.71600            74.73600           351.02600             0.00098
           351.40000            80.78700           356.84900             0.00098
             0.28200            79.55500             2.18600             0.00098
            20.84900            61.55700            11.15600             0.00098
            28.37700            61.38300            12.94900             0.00098
            32.18200            62.46400            14.19200             0.00098
            34.92500            64.10400            15.60600             0.00098
            37.49100            66.20100            17.34800             0.00098
            40.49000            68.95000            19.73000             0.00098
            44.06300            72.33100            22.89300             0.00098
            47.57200            75.37700            25.94700             0.00098
            50.91100            76.95900            27.34600             0.00098
            56.63100            76.38900            25.13600             0.00098
            97.33000            74.42100           354.98600             0.00098
           127.73200            74.80200           335.85300             0.00098
           133.98300            72.96500           336.72900             0.00098
           138.83900            69.30700           340.04400             0.00098
           142.40100            66.07500           342.79500             0.00098
           144.86100            63.95200           344.51900             0.00098
           147.22100            62.42900           345.79000             0.00098
           150.71600            61.19000           347.07100             0.00098
           158.51700            60.90900           349.11200             0.00098
           180.55700            64.18500             0.44900             0.00098
           200.84900            61.55700            11.15600             0.00098
           208.37700            61.38300            12.94900             0.00098
           212.18200            62.46400            14.19200             0.00098
           214.92500            64.10400            15.60600             0.00098
           217.49100            66.20100            17.34800             0.00098
           220.49000            68.95000            19.73000             0.00098
           224.06300            72.33100            22.89300             0.00098
           227.57200            75.37700            25.94700             0.00098
           230.91100            76.95900            27.34600             0.00098
           236.63100            76.38900            25.13600             0.00098
           277.33000            74.42100           354.98600             0.00098
           307.73200            74.80200           335.85300             0.00098
           313.98300            72.96500           336.72900             0.00098
           318.83900            69.30700           340.04400             0.00098
           322.40100            66.07500           342.79500             0.00098
           324.86100            63.95200           344.51900             0.00098
           327.22100            62.42900           345.79000             0.00098
           330.71600            61.19000           347.07100             0.00098
           338.51700            60.90900           349.11200             0.00098
             0.55700            64.18500             0.44900             0.00098
            20.61800            57.97600             9.20300             0.00098
            27.84100            58.73900            11.16200             0.00098
            31.23000            59.96000            12.37300             0.00098
            33.48200            61.42200            13.56400             0.00098
            35.45300            63.15900            14.92500             0.00098
            37.71200            65.46200            16.75500             0.00098
            40.75800            68.55700            19.36700             0.00098
            44.32500            71.93200            22.45800             0.00098
            47.54600            74.22500            24.61800             0.00098
            51.34000            74.19600            23.92300             0.00098
           122.57400            70.89800           341.34200             0.00098
           134.04700            71.95800           337.73800             0.00098
           138.60000            68.86600           340.41300             0.00098
           142.16400            65.27200           343.40700             0.00098
           144.44800            62.57000           345.49700             0.00098
           146.09500            60.79400           346.83000             0.00098
           147.86000            59.47100           347.85900             0.00098
           150.64100            58.20600           348.96700             0.00098
           157.03900            57.09300           350.73500             0.00098
           178.28300            58.08600           359.08000             0.00098
           200.61800            57.97600             9.20300             0.00098
           207.84100            58.73900            11.16200             0.00098
           211.23000            59.96000            12.37300             0.00098
           213.48200            61.42200            13.56400             0.00098
           215.45300            63.15900            14.92500             0.00098
           217.71200            65.46200            16.75500             0.00098
           220.75800            68.55700            19.36700             0.00098
           224.32500            71.93200            22.45800             0.00098
           227.54600            74.22500            24.61800             0.00098
           231.34000            74.19600            23.92300             0.00098
           302.57400            70.89800           341.34200             0.00098
           314.04700            71.95800           337.73800             0.00098
           318.60000            68.86600           340.41300             0.00098
           322.16400            65.27200           343.40700             0.00098
           324.44800            62.57000           345.49700             0.00098
           326.09500            60.79400           346.83000             0.00098
           327.86000            59.47100           347.85900             0.00098
           330.64100            58.20600           348.96700             0.00098
           337.03900            57.09300           350.73500             0.00098
           358.28300            58.08600           359.08000             0.00098
            19.66300            54.02300             6.75900             0.00098
            27.57000            55.24200             8.80800             0.00098
            30.89000            56.56000            10.01100             0.00098
            32.78200            57.88500            11.03300             0.00098
            34.19100            59.36100            12.12900             0.00098
            35.62000            61.31700            13.56600             0.00098
            37.61200            63.98200            15.58200             0.00098
            40.52400            67.20900            18.17100             0.00098
            43.89600            69.96700            20.50700             0.00098
            48.31500            70.20100            20.25600             0.00098
           131.27900            68.05100           341.86500             0.00098
           138.70100            66.89700           342.15900             0.00098
           142.13600            63.46200           344.81700             0.00098
           144.08700            60.25400           347.17100             0.00098
           145.21600            57.88500           348.86000             0.00098
           146.25400            56.36000           349.95200             0.00098
           147.71000            55.29100           350.74900             0.00098
           150.34200            54.23400           351.61800             0.00098
           156.69900            53.08500           353.09800             0.00098
           176.66500            53.25700           358.74800             0.00098
           199.66300            54.02300             6.75900             0.00098
           207.57000            55.24200             8.80800             0.00098
           210.89000            56.56000            10.01100             0.00098
           212.78200            57.88500            11.03300             0.00098
           214.19100            59.36100            12.12900             0.00098
           215.62000            61.31700            13.56600             0.00098
           217.61200            63.98200            15.58200             0.00098
           220.52400            67.20900            18.17100             0.00098
           223.89600            69.96700            20.50700             0.00098
           228.31500            70.20100            20.25600             0.00098
           311.27900            68.05100           341.86500             0.00098
           318.70100            66.89700           342.15900             0.00098
           322.13600            63.46200           344.81700             0.00098
           324.08700            60.25400           347.17100             0.00098
           325.21600            57.88500           348.86000             0.00098
           326.25400            56.36000           349.95200             0.00098
           327.71000            55.29100           350.74900             0.00098
           330.34200            54.23400           351.61800             0.00098
           336.69900            53.08500           353.09800             0.00098
           356.66500            53.25700           358.74800             0.00098
            19.36800            48.49800             3.51200             0.00098
            29.23400            49.43800             4.77800             0.00098
            32.97200            50.44600             5.58300             0.00098
            34.71000            51.45900             6.34000             0.00098
            35.62100            52.70100             7.26000             0.00098
            36.14500            54.51200             8.61000             0.00098
            36.72400            57.03000            10.43700             0.00098
            38.05400            60.07600            12.62000             0.00098
            41.06100            62.80800            14.55400             0.00098
            54.95500            59.68800            11.73800             0.00098
           132.99200            58.62000           348.89800             0.00098
           140.10400            57.14000           349.57600             0.00098
           141.55100            54.01800           351.78700             0.00098
           141.85400            51.29700           353.85100             0.00098
           142.12100            49.34800           355.39000             0.00098
           142.86600            48.16100           356.33300             0.00098
           144.49200            47.58400           356.70800             0.00098
           147.84600            47.32500           356.77900             0.00098
           155.77700            47.17900           356.93700             0.00098
           175.91800            47.79000           359.27100             0.00098
           199.36800            48.49800             3.51200             0.00098
           209.23400            49.43800             4.77800             0.00098
           212.97200            50.44600             5.58300             0.00098
           214.71000            51.45900             6.34000             0.00098
           215.62100            52.70100             7.26000             0.00098
           216.14500            54.51200             8.61000             0.00098
           216.72400            57.03000            10.43700             0.00098
           218.05400            60.07600            12.62000             0.00098
           221.06100            62.80800            14.55400             0.00098
           234.95500            59.68800            11.73800             0.00098
           312.99200            58.62000           348.89800             0.00098
           320.10400            57.14000           349.57600             0.00098
           321.55100            54.01800           351.78700             0.00098
           321.85400            51.29700           353.85100             0.00098
           322.12100            49.34800           355.39000             0.00098
           322.86600            48.16100           356.33300             0.00098
           324.49200            47.58400           356.70800             0.00098
           327.84600            47.32500           356.77900             0.00098
           335.77700            47.17900           356.93700             0.00098
           355.91800            47.79000           359.27100             0.00098
            27.33700            65.77200            15.56100             0.00098
            32.79600            65.30100            16.29600             0.00098
            36.48500            67.05300            18.00900             0.00098
            40.01600            69.83700            20.57100             0.00098
            43.41300            73.02700            23.70200             0.00098
            46.38800            76.10100            26.96200             0.00098
            48.91200            78.66000            29.84100             0.00098
            51.42300            80.35100            31.70000             0.00098
            55.11100            80.94900            31.89800             0.00098
            64.33700            80.74800            28.80600             0.00098
            94.72600            92.49400            21.32200             0.00098
           118.99800            98.92500            30.76300             0.00098
           126.39000            98.78500            32.75100             0.00098
           129.84700            99.79900            31.84000             0.00098
           132.49000           101.84600            29.44800             0.00098
           135.48300           104.74500            26.11200             0.00098
           139.38500           108.30600            22.26400             0.00098
           143.99100           111.56800            18.93100             0.00098
           150.03400           112.68200            16.91800             0.00098
           178.24200            90.74800            13.63900             0.00098
           207.33700            65.77200            15.56100             0.00098
           212.79600            65.30100            16.29600             0.00098
           216.48500            67.05300            18.00900             0.00098
           220.01600            69.83700            20.57100             0.00098
           223.41300            73.02700            23.70200             0.00098
           226.38800            76.10100            26.96200             0.00098
           228.91200            78.66000            29.84100             0.00098
           231.42300            80.35100            31.70000             0.00098
           235.11100            80.94900            31.89800             0.00098
           244.33700            80.74800            28.80600             0.00098
           274.72600            92.49400            21.32200             0.00098
           298.99800            98.92500            30.76300             0.00098
           306.39000            98.78500            32.75100             0.00098
           309.84700            99.79900            31.84000             0.00098
           312.49000           101.84600            29.44800             0.00098
           315.48300           104.74500            26.11200             0.00098
           319.38500           108.30600            22.26400             0.00098
           323.99100           111.56800            18.93100             0.00098
           330.03400           112.68200            16.91800             0.00098
           358.24200            90.74800            13.63900             0.00098
            28.27700            62.61300            13.77200             0.00098
            32.09800            63.24900            14.75900             0.00098
            35.03300            64.89800            16.23000             0.00098
            37.93000            67.25900            18.25900             0.00098
            41.03000            70.13900            20.86300             0.00098
            44.22500            73.31400            23.95900             0.00098
            47.12500            76.26600            27.09600             0.00098
            49.60100            78.43800            29.47900             0.00098
            52.15800            79.47000            30.43500             0.00098
            56.29000            79.25500            29.30500             0.00098
            69.24500            78.61000            22.33600             0.00098
            95.29200            91.04200            13.10300             0.00098
           119.60500            99.96700            28.11800             0.00098
           128.52900           100.54200            30.14400             0.00098
           133.51300           102.80600            27.59000             0.00098
           144.92700           102.07400            16.78600             0.00098
           153.62000            65.26000           347.00000             0.00098
           163.79300            68.22800           350.70300             0.00098
           181.57900            72.66200             3.25000             0.00098
           200.48200            64.30400            12.56600             0.00098
           208.27700            62.61300            13.77200             0.00098
           212.09800            63.24900            14.75900             0.00098
           215.03300            64.89800            16.23000             0.00098
           217.93000            67.25900            18.25900             0.00098
           221.03000            70.13900            20.86300             0.00098
           224.22500            73.31400            23.95900             0.00098
           227.12500            76.26600            27.09600             0.00098
           229.60100            78.43800            29.47900             0.00098
           232.15800            79.47000            30.43500             0.00098
           236.29000            79.25500            29.30500             0.00098
           249.24500            78.61000            22.33600             0.00098
           275.29200            91.04200            13.10300             0.00098
           299.60500            99.96700            28.11800             0.00098
           308.52900           100.54200            30.14400             0.00098
           313.51300           102.80600            27.59000             0.00098
           324.92700           102.07400            16.78600             0.00098
           333.62000            65.26000           347.00000             0.00098
           343.79300            68.22800           350.70300             0.00098
             1.57900            72.66200             3.25000             0.00098
            20.48200            64.30400            12.56600             0.00098
            27.09800            59.71300            11.69300             0.00098
            30.79800            60.74200            12.88300             0.00098
            33.35900            62.30000            14.20100             0.00098
            35.69800            64.30700            15.81900             0.00098
            38.23800            66.75400            17.83900             0.00098
            41.22700            69.72600            20.46100             0.00098
            44.44500            72.93400            23.54400             0.00098
            47.28400            75.60500            26.29500             0.00098
            49.60100            77.01600            27.70200             0.00098
            52.15600            76.76700            26.95700             0.00098
            62.91200            72.30500            18.46100             0.00098
           132.11900            70.83500           339.39000             0.00098
           139.73400            66.34500           342.67100             0.00098
           143.56500            61.95000           345.98700             0.00098
           145.52500            59.42400           347.80300             0.00098
           147.23800            58.37000           348.60300             0.00098
           149.72000            57.90900           349.09200             0.00098
           155.19400            57.52400           350.14200             0.00098
           174.05000            59.25900           356.70600             0.00098
           199.07300            59.47100             9.58100             0.00098
           207.09800            59.71300            11.69300             0.00098
           210.79800            60.74200            12.88300             0.00098
           213.35900            62.30000            14.20100             0.00098
           215.69800            64.30700            15.81900             0.00098
           218.23800            66.75400            17.83900             0.00098
           221.22700            69.72600            20.46100             0.00098
           224.44500            72.93400            23.54400             0.00098
           227.28400            75.60500            26.29500             0.00098
           229.60100            77.01600            27.70200             0.00098
           232.15600            76.76700            26.95700             0.00098
           242.91200            72.30500            18.46100             0.00098
           312.11900            70.83500           339.39000             0.00098
           319.73400            66.34500           342.67100             0.00098
           323.56500            61.95000           345.98700             0.00098
           325.52500            59.42400           347.80300             0.00098
           327.23800            58.37000           348.60300             0.00098
           329.72000            57.90900           349.09200             0.00098
           335.19400            57.52400           350.14200             0.00098
           354.05000            59.25900           356.70600             0.00098
            19.07300            59.47100             9.58100             0.00098
            25.96600            56.05700             9.15300             0.00098
            29.92300            57.48000            10.57000             0.00098
            32.21500            59.08200            11.85200             0.00098
            34.00000            60.89500            13.22900             0.00098
            35.78400            62.94900            14.78600             0.00098
            37.99500            65.49100            16.79300             0.00098
            40.86200            68.53500            19.36000             0.00098
            43.96200            71.48900            22.05400             0.00098
            46.54200            73.20500            23.63900             0.00098
            49.26800            72.23800            22.25300             0.00098
           128.99600            65.77600           344.14200             0.00098
           140.11800            63.03300           345.25100             0.00098
           142.91100            58.49600           348.47500             0.00098
           143.83500            55.12200           350.87600             0.00098
           144.62400            53.25900           352.22100             0.00098
           146.06200            52.70900           352.60500             0.00098
           148.61700            52.83200           352.54100             0.00098
           153.79100            52.83500           352.89500             0.00098
           169.30000            53.30300           356.09300             0.00098
           195.96900            54.81800             6.26500             0.00098
           205.96600            56.05700             9.15300             0.00098
           209.92300            57.48000            10.57000             0.00098
           212.21500            59.08200            11.85200             0.00098
           214.00000            60.89500            13.22900             0.00098
           215.78400            62.94900            14.78600             0.00098
           217.99500            65.49100            16.79300             0.00098
           220.86200            68.53500            19.36000             0.00098
           223.96200            71.48900            22.05400             0.00098
           226.54200            73.20500            23.63900             0.00098
           229.26800            72.23800            22.25300             0.00098
           308.99600            65.77600           344.14200             0.00098
           320.11800            63.03300           345.25100             0.00098
           322.91100            58.49600           348.47500             0.00098
           323.83500            55.12200           350.87600             0.00098
           324.62400            53.25900           352.22100             0.00098
           326.06200            52.70900           352.60500             0.00098
           328.61700            52.83200           352.54100             0.00098
           333.79100            52.83500           352.89500             0.00098
           349.30000            53.30300           356.09300             0.00098
            15.96900            54.81800             6.26500             0.00098
            26.59100            50.50100             5.45400             0.00098
            31.03900            52.16900             6.87900             0.00098
            33.01100            53.82900             8.14300             0.00098
            34.12900            55.53400             9.39300             0.00098
            34.99000            57.43700            10.76500             0.00098
            36.00600            59.74700            12.43000             0.00098
            37.63300            62.52600            14.47200             0.00098
            40.18700            65.40100            16.67100             0.00098
            43.75400            66.77800            17.65300             0.00098
            96.63200            48.85300           359.45900             0.00098
           133.08200            49.99300           355.51700             0.00098
           136.06300            47.17700           357.76300             0.00098
           137.02000            45.38000           359.35200             0.00098
           137.90300            44.39200             0.24700             0.00098
           139.08200            43.87000             0.64500             0.00098
           141.02600            43.84000             0.45200             0.00098
           144.62100            44.54000           359.41900             0.00098
           151.75700            45.86200           357.88400             0.00098
           168.24100            47.36800           358.06200             0.00098
           193.90800            48.98600             3.05000             0.00098
           206.59100            50.50100             5.45400             0.00098
           211.03900            52.16900             6.87900             0.00098
           213.01100            53.82900             8.14300             0.00098
           214.12900            55.53400             9.39300             0.00098
           214.99000            57.43700            10.76500             0.00098
           216.00600            59.74700            12.43000             0.00098
           217.63300            62.52600            14.47200             0.00098
           220.18700            65.40100            16.67100             0.00098
           223.75400            66.77800            17.65300             0.00098
           276.63200            48.85300           359.45900             0.00098
           313.08200            49.99300           355.51700             0.00098
           316.06300            47.17700           357.76300             0.00098
           317.02000            45.38000           359.35200             0.00098
           317.90300            44.39200             0.24700             0.00098
           319.08200            43.87000             0.64500             0.00098
           321.02600            43.84000             0.45200             0.00098
           324.62100            44.54000           359.41900             0.00098
           331.75700            45.86200           357.88400             0.00098
           348.24100            47.36800           358.06200             0.00098
            13.90800            48.98600             3.05000             0.00098
            33.16400            68.05000            18.53500             0.00098
            37.19300            68.65300            19.43300             0.00098
            40.77700            71.28400            21.98700             0.00098
            44.18200            74.63300            25.44700             0.00098
            46.80300            77.71000            28.88800             0.00098
            48.71000            80.14400            31.76900             0.00098
            50.40000            81.94200            33.94800             0.00098
            52.51700            83.08200            35.25400             0.00098
            56.29200            83.51000            35.38200             0.00098
            66.45900            83.74300            33.40800             0.00098
           100.21900            93.50900            31.16300             0.00098
           120.15700            95.93400            35.85900             0.00098
           126.20600            95.92300            36.73700             0.00098
           128.93200            96.63300            36.00900             0.00098
           130.69900            98.00000            34.29800             0.00098
           132.42300           100.06400            31.73000             0.00098
           134.86900           103.03400            28.14000             0.00098
           138.57800           106.74500            23.93900             0.00098
           143.20300           109.77100            20.66600             0.00098
           157.69900           104.85900            21.35900             0.00098
           213.16400            68.05000            18.53500             0.00098
           217.19300            68.65300            19.43300             0.00098
           220.77700            71.28400            21.98700             0.00098
           224.18200            74.63300            25.44700             0.00098
           226.80300            77.71000            28.88800             0.00098
           228.71000            80.14400            31.76900             0.00098
           230.40000            81.94200            33.94800             0.00098
           232.51700            83.08200            35.25400             0.00098
           236.29200            83.51000            35.38200             0.00098
           246.45900            83.74300            33.40800             0.00098
           280.21900            93.50900            31.16300             0.00098
           300.15700            95.93400            35.85900             0.00098
           306.20600            95.92300            36.73700             0.00098
           308.93200            96.63300            36.00900             0.00098
           310.69900            98.00000            34.29800             0.00098
           312.42300           100.06400            31.73000             0.00098
           314.86900           103.03400            28.14000             0.00098
           318.57800           106.74500            23.93900             0.00098
           323.20300           109.77100            20.66600             0.00098
           337.69900           104.85900            21.35900             0.00098
            32.79300            65.39300            16.43200             0.00098
            35.62500            66.33000            17.40500             0.00098
            38.65900            68.60800            19.45700             0.00098
            41.98100            71.70900            22.40300             0.00098
            45.05900            74.95700            25.76400             0.00098
            47.50400            77.78700            28.93200             0.00098
            49.45200            80.01100            31.52400             0.00098
            51.36200            81.47000            33.21900             0.00098
            53.97100            82.15300            33.80600             0.00098
            59.18800            82.25000            33.01200             0.00098
            77.48500            84.84300            29.16100             0.00098
           113.10900            95.70500            34.27900             0.00098
           124.42600            95.29200            37.41400             0.00098
           128.34100            95.54600            37.42000             0.00098
           130.41000            96.60000            36.12700             0.00098
           132.17500            98.50100            33.71100             0.00098
           134.93800           101.91300            29.45700             0.00098
           140.39000           106.77900            23.72300             0.00098
           152.16100           107.52300            20.41600             0.00098
           208.33100            67.12600            16.99200             0.00098
           212.79300            65.39300            16.43200             0.00098
           215.62500            66.33000            17.40500             0.00098
           218.65900            68.60800            19.45700             0.00098
           221.98100            71.70900            22.40300             0.00098
           225.05900            74.95700            25.76400             0.00098
           227.50400            77.78700            28.93200             0.00098
           229.45200            80.01100            31.52400             0.00098
           231.36200            81.47000            33.21900             0.00098
           233.97100            82.15300            33.80600             0.00098
           239.18800            82.25000            33.01200             0.00098
           257.48500            84.84300            29.16100             0.00098
           293.10900            95.70500            34.27900             0.00098
           304.42600            95.29200            37.41400             0.00098
           308.34100            95.54600            37.42000             0.00098
           310.41000            96.60000            36.12700             0.00098
           312.17500            98.50100            33.71100             0.00098
           314.93800           101.91300            29.45700             0.00098
           320.39000           106.77900            23.72300             0.00098
           332.16100           107.52300            20.41600             0.00098
            28.33100            67.12600            16.99200             0.00098
            31.03300            62.52400            14.16100             0.00098
            33.60600            63.59000            15.16700             0.00098
            36.18400            65.56300            16.82600             0.00098
            39.12400            68.28800            19.18100             0.00098
            42.34700            71.49100            22.17300             0.00098
            45.38200            74.68300            25.42400             0.00098
            47.85500            77.35800            28.36500             0.00098
            49.87500            79.17400            30.40900             0.00098
            51.90900            79.99800            31.20600             0.00098
            54.75900            79.81100            30.48300             0.00098
            61.21200            78.66600            27.16300             0.00098
            83.79200            82.68000            16.15400             0.00098
           113.74900            97.31700            28.62700             0.00098
           126.58800            97.43200            33.03100             0.00098
           132.54700            98.55000            31.87000             0.00098
           144.78000            98.46000            20.39100             0.00098
           161.04200            66.43000           351.13800             0.00098
           179.19200            72.81700             2.85900             0.00098
           199.53700            65.08800            12.89200             0.00098
           207.51400            62.59500            13.68700             0.00098
           211.03300            62.52400            14.16100             0.00098
           213.60600            63.59000            15.16700             0.00098
           216.18400            65.56300            16.82600             0.00098
           219.12400            68.28800            19.18100             0.00098
           222.34700            71.49100            22.17300             0.00098
           225.38200            74.68300            25.42400             0.00098
           227.85500            77.35800            28.36500             0.00098
           229.87500            79.17400            30.40900             0.00098
           231.90900            79.99800            31.20600             0.00098
           234.75900            79.81100            30.48300             0.00098
           241.21200            78.66600            27.16300             0.00098
           263.79200            82.68000            16.15400             0.00098
           293.74900            97.31700            28.62700             0.00098
           306.58800            97.43200            33.03100             0.00098
           312.54700            98.55000            31.87000             0.00098
           324.78000            98.46000            20.39100             0.00098
           341.04200            66.43000           351.13800             0.00098
           359.19200            72.81700             2.85900             0.00098
            19.53700            65.08800            12.89200             0.00098
            27.51400            62.59500            13.68700             0.00098
            29.29600            59.02200            11.56500             0.00098
            31.88600            60.35300            12.72400             0.00098
            34.04900            62.21100            14.18400             0.00098
            36.31300            64.55200            16.03100             0.00098
            38.99900            67.35100            18.36000             0.00098
            42.07500            70.50600            21.19800             0.00098
            45.08000            73.53300            24.16500             0.00098
            47.50600            75.70600            26.41200             0.00098
            49.34800            76.39100            27.01500             0.00098
            51.20800            74.58500            24.61600             0.00098
           121.90000            62.57800           347.66500             0.00098
           139.63700            57.15300           349.66700             0.00098
           140.52700            50.92000           354.27000             0.00098
           140.98200            48.21200           356.46100             0.00098
           142.66600            47.85000           356.63600             0.00098
           145.90900            49.24600           355.29900             0.00098
           151.48400            51.68900           353.51900             0.00098
           164.75000            53.96900           354.45600             0.00098
           193.73800            57.14400             6.62700             0.00098
           205.03500            58.09500            10.33400             0.00098
           209.29600            59.02200            11.56500             0.00098
           211.88600            60.35300            12.72400             0.00098
           214.04900            62.21100            14.18400             0.00098
           216.31300            64.55200            16.03100             0.00098
           218.99900            67.35100            18.36000             0.00098
           222.07500            70.50600            21.19800             0.00098
           225.08000            73.53300            24.16500             0.00098
           227.50600            75.70600            26.41200             0.00098
           229.34800            76.39100            27.01500             0.00098
           231.20800            74.58500            24.61600             0.00098
           301.90000            62.57800           347.66500             0.00098
           319.63700            57.15300           349.66700             0.00098
           320.52700            50.92000           354.27000             0.00098
           320.98200            48.21200           356.46100             0.00098
           322.66600            47.85000           356.63600             0.00098
           325.90900            49.24600           355.29900             0.00098
           331.48400            51.68900           353.51900             0.00098
           344.75000            53.96900           354.45600             0.00098
            13.73800            57.14400             6.62700             0.00098
            25.03500            58.09500            10.33400             0.00098
            29.25600            53.87000             8.02600             0.00098
            31.70700            55.70700             9.46200             0.00098
            33.25200            57.68100            10.92300             0.00098
            34.59500            59.83300            12.48600             0.00098
            36.15400            62.20800            14.24600             0.00098
            38.25300            64.94000            16.35600             0.00098
            40.97300            67.85200            18.75400             0.00098
            43.76900            69.98900            20.59900             0.00098
            47.26100            68.45800            18.97300             0.00098
           119.73500            40.85900             4.84400             0.00098
           123.92300            36.70900            10.55700             0.00098
           127.16200            37.03000             9.95800             0.00098
           130.37500            38.03100             8.34400             0.00098
           133.24800            38.93600             6.89100             0.00098
           136.04100            39.60100             5.75100             0.00098
           139.89400            40.44800             4.22900             0.00098
           147.33800            42.73900             0.87500             0.00098
           162.16500            46.42400           357.84000             0.00098
           188.51300            49.69200             2.26300             0.00098
           203.99400            51.96900             6.22800             0.00098
           209.25600            53.87000             8.02600             0.00098
           211.70700            55.70700             9.46200             0.00098
           213.25200            57.68100            10.92300             0.00098
           214.59500            59.83300            12.48600             0.00098
           216.15400            62.20800            14.24600             0.00098
           218.25300            64.94000            16.35600             0.00098
           220.97300            67.85200            18.75400             0.00098
           223.76900            69.98900            20.59900             0.00098
           227.26100            68.45800            18.97300             0.00098
           299.73500            40.85900             4.84400             0.00098
           303.92300            36.70900            10.55700             0.00098
           307.16200            37.03000             9.95800             0.00098
           310.37500            38.03100             8.34400             0.00098
           313.24800            38.93600             6.89100             0.00098
           316.04100            39.60100             5.75100             0.00098
           319.89400            40.44800             4.22900             0.00098
           327.33800            42.73900             0.87500             0.00098
           342.16500            46.42400           357.84000             0.00098
             8.51300            49.69200             2.26300             0.00098
            23.99400            51.96900             6.22800             0.00098
            37.62500            72.82300            23.49300             0.00098
            41.92800            74.00700            24.84300             0.00098
            45.01500            76.96500            28.12200             0.00098
            47.17400            79.89600            31.58900             0.00098
            48.59000            82.18100            34.42200             0.00098
            49.74500            83.83400            36.51500             0.00098
            51.11100            84.98700            37.98300             0.00098
            53.26100            85.70000            38.82400             0.00098
            57.79600            85.98800            38.85700             0.00098
            70.89200            86.53600            37.54400             0.00098
           101.80500            92.22200            37.50600             0.00098
           120.14500            93.31000            39.94500             0.00098
           126.16100            93.31200            40.41200             0.00098
           128.67500            93.72200            39.95700             0.00098
           130.11200            94.52600            38.91800             0.00098
           131.22500            95.74800            37.32200             0.00098
           132.46100            97.62100            34.89600             0.00098
           134.40400           100.40900            31.36900             0.00098
           137.91300           103.70800            27.36000             0.00098
           148.71400           103.48800            26.57500             0.00098
           217.62500            72.82300            23.49300             0.00098
           221.92800            74.00700            24.84300             0.00098
           225.01500            76.96500            28.12200             0.00098
           227.17400            79.89600            31.58900             0.00098
           228.59000            82.18100            34.42200             0.00098
           229.74500            83.83400            36.51500             0.00098
           231.11100            84.98700            37.98300             0.00098
           233.26100            85.70000            38.82400             0.00098
           237.79600            85.98800            38.85700             0.00098
           250.89200            86.53600            37.54400             0.00098
           281.80500            92.22200            37.50600             0.00098
           300.14500            93.31000            39.94500             0.00098
           306.16100            93.31200            40.41200             0.00098
           308.67500            93.72200            39.95700             0.00098
           310.11200            94.52600            38.91800             0.00098
           311.22500            95.74800            37.32200             0.00098
           312.46100            97.62100            34.89600             0.00098
           314.40400           100.40900            31.36900             0.00098
           317.91300           103.70800            27.36000             0.00098
           328.71400           103.48800            26.57500             0.00098
            37.20000            69.91200            20.62500             0.00098
            40.05000            71.05000            21.78400             0.00098
            43.17600            73.84800            24.63900             0.00098
            45.95700            77.05400            28.17400             0.00098
            47.93400            79.81200            31.42400             0.00098
            49.38000            81.88500            33.98100             0.00098
            50.76100            83.38600            35.85000             0.00098
            52.64000            84.35500            37.00400             0.00098
            56.06500            84.87400            37.40100             0.00098
            64.85000            85.38300            36.85600             0.00098
            92.11400            90.35000            36.41200             0.00098
           117.11200            92.78700            40.43500             0.00098
           125.41700            92.34200            41.74100             0.00098
           128.47200            92.38500            41.77000             0.00098
           130.07800            92.80800            41.22800             0.00098
           131.24900            93.58100            40.20600             0.00098
           132.48900            95.04400            38.27300             0.00098
           134.49200            97.90500            34.54700             0.00098
           139.74000           102.11400            29.12300             0.00098
           208.65900            74.81000            24.63100             0.00098
           217.20000            69.91200            20.62500             0.00098
           220.05000            71.05000            21.78400             0.00098
           223.17600            73.84800            24.63900             0.00098
           225.95700            77.05400            28.17400             0.00098
           227.93400            79.81200            31.42400             0.00098
           229.38000            81.88500            33.98100             0.00098
           230.76100            83.38600            35.85000             0.00098
           232.64000            84.35500            37.00400             0.00098
           236.06500            84.87400            37.40100             0.00098
           244.85000            85.38300            36.85600             0.00098
           272.11400            90.35000            36.41200             0.00098
           297.11200            92.78700            40.43500             0.00098
           305.41700            92.34200            41.74100             0.00098
           308.47200            92.38500            41.77000             0.00098
           310.07800            92.80800            41.22800             0.00098
           311.24900            93.58100            40.20600             0.00098
           312.48900            95.04400            38.27300             0.00098
           314.49200            97.90500            34.54700             0.00098
           319.74000           102.11400            29.12300             0.00098
            28.65900            74.81000            24.63100             0.00098
            35.07400            66.72000            17.72100             0.00098
            37.39600            67.75100            18.69500             0.00098
            40.40400            70.29300            21.04500             0.00098
            43.70400            73.64400            24.39200             0.00098
            46.48600            76.89400            27.93800             0.00098
            48.49800            79.47900            30.96200             0.00098
            50.11000            81.35100            33.21300             0.00098
            51.84400            82.52700            34.59500             0.00098
            54.43500            83.12000            35.10700             0.00098
            59.72900            83.47500            34.80600             0.00098
            77.44300            86.27100            33.84100             0.00098
           110.83200            92.64900            39.59800             0.00098
           123.91700            91.51900            42.84800             0.00098
           128.04700            91.01700            43.64100             0.00098
           130.01300            90.97100            43.69700             0.00098
           131.41000            91.20600            43.37500             0.00098
           132.97000            92.23500            41.98400             0.00098
           136.00700            95.94800            37.02000             0.00098
           155.09000            99.31200            29.76300             0.00098
           212.81100            68.22400            18.80200             0.00098
           215.07400            66.72000            17.72100             0.00098
           217.39600            67.75100            18.69500             0.00098
           220.40400            70.29300            21.04500             0.00098
           223.70400            73.64400            24.39200             0.00098
           226.48600            76.89400            27.93800             0.00098
           228.49800            79.47900            30.96200             0.00098
           230.11000            81.35100            33.21300             0.00098
           231.84400            82.52700            34.59500             0.00098
           234.43500            83.12000            35.10700             0.00098
           239.72900            83.47500            34.80600             0.00098
           257.44300            86.27100            33.84100             0.00098
           290.83200            92.64900            39.59800             0.00098
           303.91700            91.51900            42.84800             0.00098
           308.04700            91.01700            43.64100             0.00098
           310.01300            90.97100            43.69700             0.00098
           311.41000            91.20600            43.37500             0.00098
           312.97000            92.23500            41.98400             0.00098
           316.00700            95.94800            37.02000             0.00098
           335.09000            99.31200            29.76300             0.00098
            32.81100            68.22400            18.80200             0.00098
            32.46600            63.07000            14.72100             0.00098
            34.65100            64.17900            15.69300             0.00098
            37.25000            66.41700            17.56500             0.00098
            40.44400            69.55900            20.34100             0.00098
            43.80000            73.02000            23.72300             0.00098
            46.61100            76.12900            27.01800             0.00098
            48.73200            78.39900            29.57800             0.00098
            50.51000            79.66300            30.98300             0.00098
            52.40500            79.78000            30.89200             0.00098
            54.89200            78.23100            28.49500             0.00098
            66.13400            68.72500            16.04100             0.00098
           133.56200            48.49500           357.01500             0.00098
           132.57200            40.71400             4.83500             0.00098
           135.14500            40.45500             4.95100             0.00098
           140.85700            43.26600             1.86300             0.00098
           132.19600            88.95000            46.12100             0.00098
           135.50300            90.93400            43.41700             0.00098
           156.91300            98.35100            28.37200             0.00098
           206.98000            66.19100            16.31300             0.00098
           210.31200            63.37400            14.72900             0.00098
           212.46600            63.07000            14.72100             0.00098
           214.65100            64.17900            15.69300             0.00098
           217.25000            66.41700            17.56500             0.00098
           220.44400            69.55900            20.34100             0.00098
           223.80000            73.02000            23.72300             0.00098
           226.61100            76.12900            27.01800             0.00098
           228.73200            78.39900            29.57800             0.00098
           230.51000            79.66300            30.98300             0.00098
           232.40500            79.78000            30.89200             0.00098
           234.89200            78.23100            28.49500             0.00098
           246.13400            68.72500            16.04100             0.00098
           313.56200            48.49500           357.01500             0.00098
           312.57200            40.71400             4.83500             0.00098
           315.14500            40.45500             4.95100             0.00098
           320.85700            43.26600             1.86300             0.00098
           312.19600            88.95000            46.12100             0.00098
           315.50300            90.93400            43.41700             0.00098
           336.91300            98.35100            28.37200             0.00098
            26.98000            66.19100            16.31300             0.00098
            30.31200            63.37400            14.72900             0.00098
            30.72300            58.37800            11.27600             0.00098
            32.79000            59.93500            12.50100             0.00098
            34.73900            62.07200            14.13000             0.00098
            37.03300            64.74700            16.22000             0.00098
            39.85700            67.82600            18.78000             0.00098
            42.94000            70.95800            21.62000             0.00098
            45.63000            73.34800            23.94100             0.00098
            47.54500            73.74900            24.23100             0.00098
            74.03100            53.82400             8.73800             0.00098
           111.78300            30.56400            24.49000             0.00098
           114.88500            30.55700            23.93900             0.00098
           118.97800            31.49100            20.88500             0.00098
           123.70400            33.07900            16.96400             0.00098
           128.37500            34.77200            13.47000             0.00098
           132.92300            36.08000            10.92200             0.00098
           139.81300            37.32700             8.03700             0.00098
           156.88700            43.12200           359.93400             0.00098
           185.75700            51.90500             2.14600             0.00098
           202.55700            55.96600             8.59400             0.00098
           207.87000            57.31100            10.27400             0.00098
           210.72300            58.37800            11.27600             0.00098
           212.79000            59.93500            12.50100             0.00098
           214.73900            62.07200            14.13000             0.00098
           217.03300            64.74700            16.22000             0.00098
           219.85700            67.82600            18.78000             0.00098
           222.94000            70.95800            21.62000             0.00098
           225.63000            73.34800            23.94100             0.00098
           227.54500            73.74900            24.23100             0.00098
           254.03100            53.82400             8.73800             0.00098
           291.78300            30.56400            24.49000             0.00098
           294.88500            30.55700            23.93900             0.00098
           298.97800            31.49100            20.88500             0.00098
           303.70400            33.07900            16.96400             0.00098
           308.37500            34.77200            13.47000             0.00098
           312.92300            36.08000            10.92200             0.00098
           319.81300            37.32700             8.03700             0.00098
           336.88700            43.12200           359.93400             0.00098
             5.75700            51.90500             2.14600             0.00098
            22.55700            55.96600             8.59400             0.00098
            27.87000            57.31100            10.27400             0.00098
            38.57700            81.25100            33.50900             0.00098
            44.82100            81.83500            34.17900             0.00098
            46.84800            83.85600            36.71100             0.00098
            48.02900            85.56700            38.91900             0.00098
            48.98200            86.77100            40.49400             0.00098
            49.99100            87.54100            41.52000             0.00098
            51.35900            88.05000            42.18300             0.00098
            53.71200            88.31900            42.51500             0.00098
            59.14900            88.41500            42.48200             0.00098
            74.77400            88.78700            41.98000             0.00098
           102.72800            90.72600            42.74400             0.00098
           120.39700            90.79800            43.88900             0.00098
           126.31200            90.66300            44.14700             0.00098
           128.71100            90.74300            44.05100             0.00098
           130.06100            90.92500            43.77700             0.00098
           131.06500            91.23400            43.37300             0.00098
           132.03500            91.76300            42.65300             0.00098
           133.26600            92.67300            41.44000             0.00098
           135.53500            94.16000            39.46500             0.00098
           145.42100            95.11300            37.93300             0.00098
           218.57700            81.25100            33.50900             0.00098
           224.82100            81.83500            34.17900             0.00098
           226.84800            83.85600            36.71100             0.00098
           228.02900            85.56700            38.91900             0.00098
           228.98200            86.77100            40.49400             0.00098
           229.99100            87.54100            41.52000             0.00098
           231.35900            88.05000            42.18300             0.00098
           233.71200            88.31900            42.51500             0.00098
           239.14900            88.41500            42.48200             0.00098
           254.77400            88.78700            41.98000             0.00098
           282.72800            90.72600            42.74400             0.00098
           300.39700            90.79800            43.88900             0.00098
           306.31200            90.66300            44.14700             0.00098
           308.71100            90.74300            44.05100             0.00098
           310.06100            90.92500            43.77700             0.00098
           311.06500            91.23400            43.37300             0.00098
           312.03500            91.76300            42.65300             0.00098
           313.26600            92.67300            41.44000             0.00098
           315.53500            94.16000            39.46500             0.00098
           325.42100            95.11300            37.93300             0.00098
            40.04800            77.47200            28.88700             0.00098
            44.25200            77.96600            29.38500             0.00098
            46.49200            80.34500            32.21400             0.00098
            47.92900            82.69900            35.15000             0.00098
            48.97000            84.53600            37.50200             0.00098
            49.98800            85.80800            39.17200             0.00098
            51.29700            86.67300            40.29000             0.00098
            53.51300            87.21900            40.95800             0.00098
            58.42000            87.58300            41.25500             0.00098
            72.60300            88.34300            41.26300             0.00098
           100.45200            90.51700            42.98300             0.00098
           119.62400            90.12800            44.93100             0.00098
           126.07300            89.63100            45.61400             0.00098
           128.61800            89.37300            45.91600             0.00098
           130.04000            89.18000            46.15400             0.00098
           131.06900            88.93800            46.46100             0.00098
           132.08800            88.62600            46.84600             0.00098
           133.42500            88.45000            47.05200             0.00098
           136.08900            89.05000            46.20000             0.00098
           152.76400            91.75600            41.97500             0.00098
           220.04800            77.47200            28.88700             0.00098
           224.25200            77.96600            29.38500             0.00098
           226.49200            80.34500            32.21400             0.00098
           227.92900            82.69900            35.15000             0.00098
           228.97000            84.53600            37.50200             0.00098
           229.98800            85.80800            39.17200             0.00098
           231.29700            86.67300            40.29000             0.00098
           233.51300            87.21900            40.95800             0.00098
           238.42000            87.58300            41.25500             0.00098
           252.60300            88.34300            41.26300             0.00098
           280.45200            90.51700            42.98300             0.00098
           299.62400            90.12800            44.93100             0.00098
           306.07300            89.63100            45.61400             0.00098
           308.61800            89.37300            45.91600             0.00098
           310.04000            89.18000            46.15400             0.00098
           311.06900            88.93800            46.46100             0.00098
           312.08800            88.62600            46.84600             0.00098
           313.42500            88.45000            47.05200             0.00098
           316.08900            89.05000            46.20000             0.00098
           332.76400            91.75600            41.97500             0.00098
            39.53700            73.86900            24.77500             0.00098
            42.43000            74.19000            25.06800             0.00098
            45.12700            76.77300            27.90800             0.00098
            47.26900            79.70600            31.35600             0.00098
            48.71900            82.13100            34.35500             0.00098
            49.88000            83.87600            36.58000             0.00098
            51.21100            85.05100            38.07600             0.00098
            53.28900            85.81500            38.99600             0.00098
            57.59100            86.40900            39.53600             0.00098
            69.82800            87.52800            39.98900             0.00098
            97.58700            90.34700            42.91000             0.00098
           118.61000            89.37600            46.13200             0.00098
           125.67500            88.42400            47.33100             0.00098
           128.41100            87.85300            48.02000             0.00098
           129.91200            87.28700            48.71700             0.00098
           131.00600            86.46700            49.77000             0.00098
           132.08400            85.32300            51.23900             0.00098
           133.53800            84.09400            52.79800             0.00098
           136.52100            83.90400            52.94000             0.00098
           169.11800            89.64300            42.76000             0.00098
           219.53700            73.86900            24.77500             0.00098
           222.43000            74.19000            25.06800             0.00098
           225.12700            76.77300            27.90800             0.00098
           227.26900            79.70600            31.35600             0.00098
           228.71900            82.13100            34.35500             0.00098
           229.88000            83.87600            36.58000             0.00098
           231.21100            85.05100            38.07600             0.00098
           233.28900            85.81500            38.99600             0.00098
           237.59100            86.40900            39.53600             0.00098
           249.82800            87.52800            39.98900             0.00098
           277.58700            90.34700            42.91000             0.00098
           298.61000            89.37600            46.13200             0.00098
           305.67500            88.42400            47.33100             0.00098
           308.41100            87.85300            48.02000             0.00098
           309.91200            87.28700            48.71700             0.00098
           311.00600            86.46700            49.77000             0.00098
           312.08400            85.32300            51.23900             0.00098
           313.53800            84.09400            52.79800             0.00098
           316.52100            83.90400            52.94000             0.00098
           349.11800            89.64300            42.76000             0.00098
            37.40200            69.96100            20.75400             0.00098
            39.45700            70.12000            20.91300             0.00098
            42.47200            72.70600            23.45600             0.00098
            45.56800            76.15300            27.14200             0.00098
            47.85200            79.19100            30.67500             0.00098
            49.46600            81.41800            33.36900             0.00098
            50.95500            82.83900            35.11700             0.00098
            52.93900            83.61900            35.98900             0.00098
            56.46600            84.02200            36.17300             0.00098
            65.24800            85.06900            36.38500             0.00098
            91.83000            89.93900            41.31100             0.00098
           116.40600            88.10000            48.27700             0.00098
           124.68100            86.48000            50.13100             0.00098
           127.91400            85.76300            50.89500             0.00098
           129.68600            84.95200            51.87900             0.00098
           131.01200            83.65200            53.50700             0.00098
           132.42900            81.77000            55.88100             0.00098
           134.38800            79.69900            58.41800             0.00098
           137.61700            79.34900            58.70700             0.00098
           201.98500            81.31200            33.50200             0.00098
           217.40200            69.96100            20.75400             0.00098
           219.45700            70.12000            20.91300             0.00098
           222.47200            72.70600            23.45600             0.00098
           225.56800            76.15300            27.14200             0.00098
           227.85200            79.19100            30.67500             0.00098
           229.46600            81.41800            33.36900             0.00098
           230.95500            82.83900            35.11700             0.00098
           232.93900            83.61900            35.98900             0.00098
           236.46600            84.02200            36.17300             0.00098
           245.24800            85.06900            36.38500             0.00098
           271.83000            89.93900            41.31100             0.00098
           296.40600            88.10000            48.27700             0.00098
           304.68100            86.48000            50.13100             0.00098
           307.91400            85.76300            50.89500             0.00098
           309.68600            84.95200            51.87900             0.00098
           311.01200            83.65200            53.50700             0.00098
           312.42900            81.77000            55.88100             0.00098
           314.38800            79.69900            58.41800             0.00098
           317.61700            79.34900            58.70700             0.00098
            21.98500            81.31200            33.50200             0.00098
            34.07300            65.16000            16.47000             0.00098
            35.98500            65.58200            16.87300             0.00098
            38.81200            67.97900            18.93800             0.00098
            42.31500            71.46500            22.17900             0.00098
            45.59600            74.96000            25.77100             0.00098
            48.00800            77.49300            28.56000             0.00098
            49.83400            78.56500            29.71700             0.00098
            51.50100            76.57300            27.20500             0.00098
           101.45300            29.21900            32.87500             0.00098
           103.69500            28.81000            34.33200             0.00098
           108.59400            28.91900            31.61000             0.00098
           112.49800            29.13800            29.19900             0.00098
           115.90700            29.42000            27.16600             0.00098
           117.91100            29.21300            27.39300             0.00098
           129.11300            78.89800            59.59600             0.00098
           131.62300            79.36700            58.97800             0.00098
           134.07200            77.15900            61.55300             0.00098
           137.08100            74.54700            64.45700             0.00098
           140.26600            75.13300            63.63300             0.00098
           212.67600            69.88800            20.63200             0.00098
           214.07300            65.16000            16.47000             0.00098
           215.98500            65.58200            16.87300             0.00098
           218.81200            67.97900            18.93800             0.00098
           222.31500            71.46500            22.17900             0.00098
           225.59600            74.96000            25.77100             0.00098
           228.00800            77.49300            28.56000             0.00098
           229.83400            78.56500            29.71700             0.00098
           231.50100            76.57300            27.20500             0.00098
           281.45300            29.21900            32.87500             0.00098
           283.69500            28.81000            34.33200             0.00098
           288.59400            28.91900            31.61000             0.00098
           292.49800            29.13800            29.19900             0.00098
           295.90700            29.42000            27.16600             0.00098
           297.91100            29.21300            27.39300             0.00098
           309.11300            78.89800            59.59600             0.00098
           311.62300            79.36700            58.97800             0.00098
           314.07200            77.15900            61.55300             0.00098
           317.08100            74.54700            64.45700             0.00098
           320.26600            75.13300            63.63300             0.00098
            32.67600            69.88800            20.63200             0.00098
            15.80600            68.52300            11.43400             0.00098
            27.09900            64.17100            14.31500             0.00098
            32.54600            64.56000            15.65700             0.00098
            36.23700            66.33700            17.36000             0.00098
            39.54000            68.81000            19.57200             0.00098
            43.04800            71.86100            22.42900             0.00098
            46.74000            75.11900            25.69800             0.00098
            50.48600            77.55900            28.11400             0.00098
            55.83900            78.30500            27.83500             0.00098
            70.97500            78.72700            19.58400             0.00098
            90.55000            87.04700             5.60000             0.00098
            99.30400            92.23300             5.86700             0.00098
           116.29600           101.17100            19.09800             0.00098
           129.72400           104.33100            23.64300             0.00098
           136.71600           106.92400            21.56900             0.00098
           144.83700           105.44600            15.45000             0.00098
           153.51100            72.47800           348.26700             0.00098
           161.71600            74.73600           351.02600             0.00098
           171.40000            80.78700           356.84900             0.00098
           180.28200            79.55500             2.18600             0.00098
           195.80600            68.52300            11.43400             0.00098
           207.09900            64.17100            14.31500             0.00098
           212.54600            64.56000            15.65700             0.00098
           216.23700            66.33700            17.36000             0.00098
