 TEXTURE AT STRAIN =    1.0000
  0.947   1.221   0.864 
   90.00   90.00   90.00  
 B   1024
             8.25500            69.87500             4.25500             0.00098
            17.65600            70.41200             1.86300             0.00098
            26.46900            70.84900             1.96100             0.00098
            35.46200            71.42500             3.64900             0.00098
            44.78300            74.96300             6.45000             0.00098
            52.46800            80.59000             8.57500             0.00098
            59.20300            82.45800             8.24300             0.00098
            67.66500            78.60100             7.77100             0.00098
            77.24100            72.05100             7.52500             0.00098
            87.15100            68.58100             6.34700             0.00098
            98.09400            68.58600             3.24400             0.00098
           108.43600            70.27900             1.22400             0.00098
           117.51600            71.58900             1.92000             0.00098
           125.85900            72.31200             4.19400             0.00098
           134.17600            75.39000             7.37600             0.00098
           141.78600            80.04700             9.09200             0.00098
           149.18500            81.02500             7.84800             0.00098
           158.19300            77.12800             6.86000             0.00098
           168.14100            71.63100             6.90700             0.00098
           178.13800            69.54500             6.65500             0.00098
           188.25500            69.87500             4.25500             0.00098
           197.65600            70.41200             1.86300             0.00098
           206.46900            70.84900             1.96100             0.00098
           215.46200            71.42500             3.64900             0.00098
           224.78300            74.96300             6.45000             0.00098
           232.46800            80.59000             8.57500             0.00098
           239.20300            82.45800             8.24300             0.00098
           247.66500            78.60100             7.77100             0.00098
           257.24100            72.05100             7.52500             0.00098
           267.15100            68.58100             6.34700             0.00098
           278.09400            68.58600             3.24400             0.00098
           288.43600            70.27900             1.22400             0.00098
           297.51600            71.58900             1.92000             0.00098
           305.85900            72.31200             4.19400             0.00098
           314.17600            75.39000             7.37600             0.00098
           321.78600            80.04700             9.09200             0.00098
           329.18500            81.02500             7.84800             0.00098
           338.19300            77.12800             6.86000             0.00098
           348.14100            71.63100             6.90700             0.00098
           358.13800            69.54500             6.65500             0.00098
             5.81400            58.39000           359.82200             0.00098
            14.56100            60.35300           359.41400             0.00098
            22.71200            62.27000           359.75900             0.00098
            31.15800            62.98800             0.53000             0.00098
            40.86000            63.54800             1.09200             0.00098
            51.29300            64.93800             1.19500             0.00098
            60.61300            65.44200             1.45700             0.00098
            69.00700            63.52200             1.74500             0.00098
            77.14200            60.19600             1.55600             0.00098
            85.58500            57.91400             0.92200             0.00098
            94.85800            57.89700           359.94700             0.00098
           104.40300            60.01900           359.29300             0.00098
           113.57500            62.48500           359.56200             0.00098
           122.29100            63.46700             0.49200             0.00098
           131.12500            63.99200             1.33000             0.00098
           140.38200            64.97900             1.56500             0.00098
           149.53200            65.05100             1.51700             0.00098
           158.52000            63.03800             1.56000             0.00098
           167.42300            59.88500             1.31000             0.00098
           176.49700            58.01700             0.67100             0.00098
           185.81400            58.39000           359.82200             0.00098
           194.56100            60.35300           359.41400             0.00098
           202.71200            62.27000           359.75900             0.00098
           211.15800            62.98800             0.53000             0.00098
           220.86000            63.54800             1.09200             0.00098
           231.29300            64.93800             1.19500             0.00098
           240.61300            65.44200             1.45700             0.00098
           249.00700            63.52200             1.74500             0.00098
           257.14200            60.19600             1.55600             0.00098
           265.58500            57.91400             0.92200             0.00098
           274.85800            57.89700           359.94700             0.00098
           284.40300            60.01900           359.29300             0.00098
           181.12000            48.76500           359.56200             0.00098
           269.87900            49.78000             0.49200             0.00098
           240.56800            52.05200             1.33000             0.00098
           320.38200            64.97900             0.14200             0.00098
           329.53200            65.05100             1.51700             0.00098
           338.52000            63.03800             1.56000             0.00098
           347.42300            59.88500             1.31000             0.00098
           356.49700            58.01700             0.67100             0.00098
             4.96100            54.97200           359.78800             0.00098
            13.15600            56.61700           359.61200             0.00098
            20.83500            58.40400           359.79800             0.00098
            28.87900            59.19400             0.24800             0.00098
            38.75800            59.33800             0.45200             0.00098
            50.66500            59.95300             0.10900             0.00098
            61.35100            60.27200             0.24600             0.00098
            70.07800            58.85400             0.60700             0.00098
            78.00300            56.38900             0.62000             0.00098
            85.83900            54.65800             0.35800             0.00098
            93.97200            54.56800           359.94700             0.00098
           102.45700            56.13900           359.59400             0.00098
           111.11700            58.35900           359.63400             0.00098
           119.99300            59.54800             0.11000             0.00098
           129.68200            59.79700             0.47800             0.00098
           140.30400            60.13100             0.35500             0.00098
           150.27200            60.04000             0.36600             0.00098
           159.22000            58.50900             0.54000             0.00098
           167.77400            56.12900             0.45900             0.00098
           176.33400            54.68400             0.15400             0.00098
           184.96100            54.97200           359.78800             0.00098
           193.15600            56.61700           359.61200             0.00098
           200.83500            58.40400           359.79800             0.00098
           208.87900            59.19400             0.24800             0.00098
           218.75800            59.33800             0.45200             0.00098
           230.66500            59.95300             0.10900             0.00098
           241.35100            60.27200             0.24600             0.00098
           250.07800            58.85400             0.60700             0.00098
           258.00300            56.38900             0.62000             0.00098
           265.83900            54.65800             0.35800             0.00098
           273.97200            54.56800           359.94700             0.00098
           282.45700            56.13900           359.59400             0.00098
           291.11700            58.35900           359.63400             0.00098
           299.99300            59.54800             0.11000             0.00098
           309.68200            59.79700             0.47800             0.00098
           320.30400            60.13100             0.35500             0.00098
           330.27200            60.04000             0.36600             0.00098
           339.22000            58.50900             0.54000             0.00098
           347.77400            56.12900             0.45900             0.00098
           356.33400            54.68400             0.15400             0.00098
             4.80100            52.29000           359.89200             0.00098
            12.56300            53.63500           359.89200             0.00098
            20.05000            55.09300             0.05800             0.00098
            28.08800            55.72500             0.35900             0.00098
            38.31900            55.72900             0.37000             0.00098
            51.14700            56.12800           359.81400             0.00098
            62.58700            56.37800           359.83900             0.00098
            71.56400            55.17400             0.13100             0.00098
            79.35000            53.22900             0.19500             0.00098
            86.69400            51.96500             0.14100             0.00098
            94.01600            51.93400             0.03600             0.00098
           101.64100            53.09400           359.91000             0.00098
           109.80500            54.86500           359.92300             0.00098
           118.84700            55.99200             0.19600             0.00098
           129.49400            56.22300             0.31700             0.00098
           141.38500            56.39300           359.99600             0.00098
           151.81100            56.16900           359.96600             0.00098
           160.60900            54.81000             0.08800             0.00098
           168.75800            52.96900             0.05700             0.00098
           176.78700            51.96700           359.96200             0.00098
           184.80100            52.29000           359.89200             0.00098
           192.56300            53.63500           359.89200             0.00098
           200.05000            55.09300             0.05800             0.00098
           208.08800            55.72500             0.35900             0.00098
           218.31900            55.72900             0.37000             0.00098
           231.14700            56.12800           359.81400             0.00098
           242.58700            56.37800           359.83900             0.00098
           251.56400            55.17400             0.13100             0.00098
           259.35000            53.22900             0.19500             0.00098
           266.69400            51.96500             0.14100             0.00098
           274.01600            51.93400             0.03600             0.00098
           281.64100            53.09400           359.91000             0.00098
           289.80500            54.86500           359.92300             0.00098
           298.84700            55.99200             0.19600             0.00098
           309.49400            56.22300             0.31700             0.00098
           321.38500            56.39300           359.99600             0.00098
           331.81100            56.16900           359.96600             0.00098
           340.60900            54.81000             0.08800             0.00098
           348.75800            52.96900             0.05700             0.00098
           356.78700            51.96700           359.96200             0.00098
             5.47200            48.98800             0.07900             0.00098
            13.18700            49.89000             0.27500             0.00098
            21.00000            50.62500             0.48600             0.00098
            29.63500            50.73700             0.61800             0.00098
            40.20600            50.71400             0.31600             0.00098
            52.62400            51.02100           359.60800             0.00098
            63.87500            51.17700           359.48400             0.00098
            72.99300            50.43900           359.67500             0.00098
            80.84400            49.31100           359.84600             0.00098
            88.07800            48.61100             0.03600             0.00098
            95.08500            48.65500             0.21700             0.00098
           102.35400            49.33900             0.30400             0.00098
           110.35400            50.29900             0.36300             0.00098
           119.79900            50.96600             0.44600             0.00098
           131.22900            51.27300             0.23700             0.00098
           143.40400            51.36200           359.74800             0.00098
           153.66400            50.96500           359.61800             0.00098
           162.19400            49.99300           359.65100             0.00098
           170.01000            48.97600           359.69900             0.00098
           177.71700            48.58800           359.85200             0.00098
           185.47200            48.98800             0.07900             0.00098
           193.18700            49.89000             0.27500             0.00098
           201.00000            50.62500             0.48600             0.00098
           209.63500            50.73700             0.61800             0.00098
           220.20600            50.71400             0.31600             0.00098
           232.62400            51.02100           359.60800             0.00098
           243.87500            51.17700           359.48400             0.00098
           252.99300            50.43900           359.67500             0.00098
           260.84400            49.31100           359.84600             0.00098
           268.07800            48.61100             0.03600             0.00098
           275.08500            48.65500             0.21700             0.00098
           282.35400            49.33900             0.30400             0.00098
           290.35400            50.29900             0.36300             0.00098
           299.79900            50.96600             0.44600             0.00098
           311.22900            51.27300             0.23700             0.00098
           323.40400            51.36200           359.74800             0.00098
           333.66400            50.96500           359.61800             0.00098
           342.19400            49.99300           359.65100             0.00098
           350.01000            48.97600           359.69900             0.00098
           357.71700            48.58800           359.85200             0.00098
            11.30400            89.31400            30.71500             0.00098
            24.57900            85.39000            21.58300             0.00098
            34.78100            80.35700            16.44200             0.00098
            43.03500            83.68700            20.71600             0.00098
            47.03800            88.68700            25.91600             0.00098
            49.78000            91.11500            26.30800             0.00098
            55.01900            92.67700            23.41400             0.00098
            65.63300            90.51700            22.24700             0.00098
            79.40600            87.51000            27.17800             0.00098
            90.84500            88.90600            32.24800             0.00098
           102.18900            89.36500            29.89300             0.00098
           114.68300            85.62600            21.52300             0.00098
           124.47200            81.22200            17.45700             0.00098
           132.20700            83.83300            21.49000             0.00098
           136.90400            88.34000            26.10100             0.00098
           140.40100            90.89500            26.03400             0.00098
           146.15100            92.54200            22.58400             0.00098
           156.79600            90.33800            21.64900             0.00098
           169.28200            87.84300            27.41100             0.00098
           179.66500            88.93400            32.82400             0.00098
           191.30400            89.31400            30.71500             0.00098
           204.57900            85.39000            21.58300             0.00098
           214.78100            80.35700            16.44200             0.00098
           223.03500            83.68700            20.71600             0.00098
           227.03800            88.68700            25.91600             0.00098
           229.78000            91.11500            26.30800             0.00098
           235.01900            92.67700            23.41400             0.00098
           245.63300            90.51700            22.24700             0.00098
           259.40600            87.51000            27.17800             0.00098
           270.84500            88.90600            32.24800             0.00098
           282.18900            89.36500            29.89300             0.00098
           294.68300            85.62600            21.52300             0.00098
           304.47200            81.22200            17.45700             0.00098
           312.20700            83.83300            21.49000             0.00098
           316.90400            88.34000            26.10100             0.00098
           320.40100            90.89500            26.03400             0.00098
           326.15100            92.54200            22.58400             0.00098
           336.79600            90.33800            21.64900             0.00098
           349.28200            87.84300            27.41100             0.00098
           359.66500            88.93400            32.82400             0.00098
            10.73300            67.68000             5.25300             0.00098
            18.97000            65.87200             2.25900             0.00098
            26.93800            65.31100             2.24100             0.00098
            36.27900            66.40200             4.24000             0.00098
            48.81300            73.95700            10.13900             0.00098
            58.04500            81.82100            14.80800             0.00098
            65.54300            79.40100            12.52700             0.00098
            73.07600            71.36600             8.61300             0.00098
            80.56800            65.93900             6.56700             0.00098
            89.85100            65.76400             6.44900             0.00098
           100.56900            66.43400             4.13700             0.00098
           109.81300            65.78600             1.88500             0.00098
           118.14100            65.82600             2.34200             0.00098
           126.87400            67.19200             4.84900             0.00098
           137.97800            74.13700            10.84800             0.00098
           147.57300            80.98700            14.44100             0.00098
           155.59900            77.90300            11.29100             0.00098
           163.47600            70.21600             7.58700             0.00098
           171.61300            65.91600             6.34600             0.00098
           181.01600            67.11300             7.28600             0.00098
           190.73300            67.68000             5.25300             0.00098
           198.97000            65.87200             2.25900             0.00098
           206.93800            65.31100             2.24100             0.00098
           216.27900            66.40200             4.24000             0.00098
           228.81300            73.95700            10.13900             0.00098
           238.04500            81.82100            14.80800             0.00098
           245.54300            79.40100            12.52700             0.00098
           253.07600            71.36600             8.61300             0.00098
           260.56800            65.93900             6.56700             0.00098
           269.85100            65.76400             6.44900             0.00098
           280.56900            66.43400             4.13700             0.00098
           289.81300            65.78600             1.88500             0.00098
           298.14100            65.82600             2.34200             0.00098
           306.87400            67.19200             4.84900             0.00098
           317.97800            74.13700            10.84800             0.00098
           327.57300            80.98700            14.44100             0.00098
           335.59900            77.90300            11.29100             0.00098
           343.47600            70.21600             7.58700             0.00098
           351.61300            65.91600             6.34600             0.00098
             1.01600            67.11300             7.28600             0.00098
             5.85600            56.69900             0.13000             0.00098
            14.30300            58.29400           359.85600             0.00098
            22.11200            59.56100             0.14200             0.00098
            30.20900            60.00700             0.76700             0.00098
            40.17800            60.83300             1.34800             0.00098
           118.74400            65.02200             1.51800             0.00098
            62.28300            62.89800             1.45400             0.00098
            70.87100            60.26100             1.35100             0.00098
            78.72000            57.28500             1.12000             0.00098
            86.44600            55.80600             0.79500             0.00098
            94.95100            56.20500             0.22900             0.00098
           104.04800            57.93500           359.75800             0.00098
           112.79600            59.67900           359.97900             0.00098
           121.32200            60.43600             0.71200             0.00098
           130.56400            61.28200             1.53100             0.00098
           141.00600            62.84400             1.81800             0.00098
           151.17500            62.50000             1.45600             0.00098
           160.34800            59.84500             1.19500             0.00098
           168.87900            57.04500             0.92300             0.00098
           177.22100            55.95500             0.59800             0.00098
           185.85600            56.69900             0.13000             0.00098
           194.30300            58.29400           359.85600             0.00098
           202.11200            59.56100             0.14200             0.00098
           210.20900            60.00700             0.76700             0.00098
           220.17800            60.83300             1.34800             0.00098
           231.97500            62.87000             1.51800             0.00098
           242.28300            62.89800             1.45400             0.00098
           250.87100            60.26100             1.35100             0.00098
           258.72000            57.28500             1.12000             0.00098
           266.44600            55.80600             0.79500             0.00098
           274.95100            56.20500             0.22900             0.00098
           284.04800            57.93500           359.75800             0.00098
           292.79600            59.67900           359.97900             0.00098
           301.32200            60.43600             0.71200             0.00098
           310.56400            61.28200             1.53100             0.00098
           321.00600            62.84400             1.81800             0.00098
           331.17500            62.50000             1.45600             0.00098
           340.34800            59.84500             1.19500             0.00098
           348.87900            57.04500             0.92300             0.00098
           357.22100            55.95500             0.59800             0.00098
             5.90400            53.07300           359.95000             0.00098
            13.62700            54.51700           359.92500             0.00098
            21.09000            55.69200             0.13800             0.00098
            29.08000            55.98300             0.49000             0.00098
            39.10500            56.13900             0.53600             0.00098
            51.83100            57.07500             0.04700             0.00098
            63.44900            57.23500             0.08300             0.00098
            72.59900            55.43700             0.29900             0.00098
            80.46000            53.28200             0.30400             0.00098
            87.71600            52.27800             0.23600             0.00098
            95.05100            52.64400             0.08000             0.00098
           102.89500            54.02900           359.90700             0.00098
           111.14000            55.59400           359.99100             0.00098
           119.96300            56.32200             0.34200             0.00098
           130.09100            56.62700             0.53000             0.00098
           141.65200            57.23900             0.25800             0.00098
           152.49100            56.94900             0.17600             0.00098
           161.74900            55.07400             0.23000             0.00098
           170.10200            53.06600             0.15100             0.00098
           178.03600            52.36800             0.05600             0.00098
           185.90400            53.07300           359.95000             0.00098
           193.62700            54.51700           359.92500             0.00098
           201.09000            55.69200             0.13800             0.00098
           209.08000            55.98300             0.49000             0.00098
           219.10500            56.13900             0.53600             0.00098
           231.83100            57.07500             0.04700             0.00098
           243.44900            57.23500             0.08300             0.00098
           252.59900            55.43700             0.29900             0.00098
           260.46000            53.28200             0.30400             0.00098
           267.71600            52.27800             0.23600             0.00098
           275.05100            52.64400             0.08000             0.00098
           282.89500            54.02900           359.90700             0.00098
           291.14000            55.59400           359.99100             0.00098
           299.96300            56.32200             0.34200             0.00098
           310.09100            56.62700             0.53000             0.00098
           321.65200            57.23900             0.25800             0.00098
           332.49100            56.94900             0.17600             0.00098
           341.74900            55.07400             0.23000             0.00098
           350.10200            53.06600             0.15100             0.00098
           358.03600            52.36800             0.05600             0.00098
             8.69000            49.59100             0.17800             0.00098
            16.25800            50.51800             0.35500             0.00098
            24.20400            50.80900             0.58400             0.00098
            33.26700            50.49300             0.63400             0.00098
            44.23500            50.71900             0.14200             0.00098
            56.56900            51.40900           359.55200             0.00098
            67.47000            51.32200           359.60600             0.00098
            76.35500            50.02900           359.78300             0.00098
            84.07700            48.90000           359.95500             0.00098
            91.13400            48.61400             0.15800             0.00098
            98.05100            49.11600             0.27400             0.00098
           105.43700            50.01500             0.32000             0.00098
           113.85700            50.70900             0.42500             0.00098
           123.76200            50.94600             0.47900             0.00098
           135.25900            51.26000             0.14200             0.00098
           146.94900            51.55400           359.72700             0.00098
           156.93200            50.92700           359.67700             0.00098
           165.49700            49.61500           359.69700             0.00098
           173.43500            48.70300           359.78400             0.00098
           181.12000            48.76500           359.98800             0.00098
           188.69000            49.59100             0.17800             0.00098
           196.25800            50.51800             0.35500             0.00098
           204.20400            50.80900             0.58400             0.00098
           213.26700            50.49300             0.63400             0.00098
           224.23500            50.71900             0.14200             0.00098
           236.56900            51.40900           359.55200             0.00098
           247.47000            51.32200           359.60600             0.00098
           256.35500            50.02900           359.78300             0.00098
           264.07700            48.90000           359.95500             0.00098
           271.13400            48.61400             0.15800             0.00098
           278.05100            49.11600             0.27400             0.00098
           285.43700            50.01500             0.32000             0.00098
           293.85700            50.70900             0.42500             0.00098
           303.76200            50.94600             0.47900             0.00098
           315.25900            51.26000             0.14200             0.00098
           326.94900            51.55400           359.72700             0.00098
           336.93200            50.92700           359.67700             0.00098
           345.49700            49.61500           359.69700             0.00098
           353.43500            48.70300           359.78400             0.00098
             1.12000            48.76500           359.98800             0.00098
             9.39200            90.02900            38.06700             0.00098
            22.54500            89.06200            32.78100             0.00098
            34.12100            87.59100            30.41200             0.00098
            40.60900            88.66900            32.79100             0.00098
            44.55400            89.81900            34.77800             0.00098
            48.46700            90.69900            34.60900             0.00098
            53.76700            91.63200            32.41600             0.00098
            63.15600            91.22400            31.00600             0.00098
            75.86000            89.59000            34.94000             0.00098
            87.69500            89.82000            38.70800             0.00098
            99.59100            90.17100            37.92100             0.00098
           111.75500            89.23800            33.23100             0.00098
           123.08400            87.63200            30.93500             0.00098
           130.20300            88.45500            32.93900             0.00098
           134.91700            89.69900            34.61600             0.00098
           139.25500            90.74000            34.09100             0.00098
           144.61400            91.79400            31.62300             0.00098
           153.59200            91.38100            30.64800             0.00098
           165.04200            89.75600            35.11500             0.00098
           176.49900            89.71400            38.99800             0.00098
           189.39200            90.02900            38.06700             0.00098
           202.54500            89.06200            32.78100             0.00098
           214.12100            87.59100            30.41200             0.00098
           220.60900            88.66900            32.79100             0.00098
           224.55400            89.81900            34.77800             0.00098
           228.46700            90.69900            34.60900             0.00098
           233.76700            91.63200            32.41600             0.00098
           243.15600            91.22400            31.00600             0.00098
           255.86000            89.59000            34.94000             0.00098
           267.69500            89.82000            38.70800             0.00098
           279.59100            90.17100            37.92100             0.00098
           291.75500            89.23800            33.23100             0.00098
           303.08400            87.63200            30.93500             0.00098
           310.20300            88.45500            32.93900             0.00098
           314.91700            89.69900            34.61600             0.00098
           319.25500            90.74000            34.09100             0.00098
           324.61400            91.79400            31.62300             0.00098
           333.59200            91.38100            30.64800             0.00098
           345.04200            89.75600            35.11500             0.00098
           356.49900            89.71400            38.99800             0.00098
            15.56300            89.35000            34.03200             0.00098
            29.37100            86.05800            26.70400             0.00098
            39.41000            84.13300            24.28900             0.00098
            45.26000            87.64800            28.92800             0.00098
            48.62700            89.90300            32.19000             0.00098
            52.91000            90.98200            31.79200             0.00098
            60.29500            91.15200            29.17200             0.00098
            72.31800            88.91600            29.37300             0.00098
            83.78500            88.64300            33.97100             0.00098
            94.10900            89.61100            36.64800             0.00098
           105.92400            89.42700            33.75500             0.00098
           119.01100            86.28400            27.15600             0.00098
           128.66100            84.48600            25.20400             0.00098
           134.76900            87.42200            29.18700             0.00098
           138.93000            89.75500            31.94900             0.00098
           143.70300            91.00800            31.15400             0.00098
           151.32000            91.17100            28.41600             0.00098
           162.84200            89.02000            29.38200             0.00098
           173.08400            88.76500            34.41700             0.00098
           183.10600            89.49500            37.09500             0.00098
           195.56300            89.35000            34.03200             0.00098
           209.37100            86.05800            26.70400             0.00098
           219.41000            84.13300            24.28900             0.00098
           225.26000            87.64800            28.92800             0.00098
           228.62700            89.90300            32.19000             0.00098
           232.91000            90.98200            31.79200             0.00098
           240.29500            91.15200            29.17200             0.00098
           252.31800            88.91600            29.37300             0.00098
           263.78500            88.64300            33.97100             0.00098
           274.10900            89.61100            36.64800             0.00098
           285.92400            89.42700            33.75500             0.00098
           299.01100            86.28400            27.15600             0.00098
           308.66100            84.48600            25.20400             0.00098
           314.76900            87.42200            29.18700             0.00098
           318.93000            89.75500            31.94900             0.00098
           323.70300            91.00800            31.15400             0.00098
           331.32000            91.17100            28.41600             0.00098
           342.84200            89.02000            29.38200             0.00098
           353.08400            88.76500            34.41700             0.00098
             3.10600            89.49500            37.09500             0.00098
            14.31400            72.40100            10.05100             0.00098
            20.53500            66.48200             3.67300             0.00098
            27.48100            64.42500             2.79600             0.00098
            36.98200            65.85300             5.10000             0.00098
            51.87900            78.05600            14.94500             0.00098
            60.29300            85.16200            19.75500             0.00098
            68.84000            79.23500            14.74000             0.00098
            75.10800            68.66400             8.07200             0.00098
            82.19100            64.56700             6.37600             0.00098
            92.67200            68.60100             9.28600             0.00098
           104.30700            70.76300             8.15900             0.00098
           111.55600            66.49600             3.37300             0.00098
           118.74400            65.02200             3.03200             0.00098
           127.57000            66.75600             5.87700             0.00098
           140.95000            77.82700            15.30600             0.00098
           150.33700            84.24200            18.87100             0.00098
           159.03300            77.58200            13.12800             0.00098
           165.60100            67.75000             7.19500             0.00098
           173.36800            65.00800             6.51500             0.00098
           184.00600            71.01100            11.33100             0.00098
           194.31400            72.40100            10.05100             0.00098
           200.53500            66.48200             3.67300             0.00098
           207.48100            64.42500             2.79600             0.00098
           216.98200            65.85300             5.10000             0.00098
           231.87900            78.05600            14.94500             0.00098
           240.29300            85.16200            19.75500             0.00098
           248.84000            79.23500            14.74000             0.00098
           255.10800            68.66400             8.07200             0.00098
           262.19100            64.56700             6.37600             0.00098
           272.67200            68.60100             9.28600             0.00098
           284.30700            70.76300             8.15900             0.00098
           291.55600            66.49600             3.37300             0.00098
           298.74400            65.02200             3.03200             0.00098
           307.57000            66.75600             5.87700             0.00098
           320.95000            77.82700            15.30600             0.00098
           330.33700            84.24200            18.87100             0.00098
           339.03300            77.58200            13.12800             0.00098
           345.60100            67.75000             7.19500             0.00098
           353.36800            65.00800             6.51500             0.00098
             4.00600            71.01100            11.33100             0.00098
             7.11300            55.26200             0.14100             0.00098
            14.99500            56.62500             0.03200             0.00098
            22.58000            57.25600             0.32100             0.00098
            30.66800            57.23300             0.77800             0.00098
            40.70900            57.98800             1.04800             0.00098
            53.14600            59.97000             0.91300             0.00098
            64.51100            59.49900             0.79700             0.00098
            73.68500            56.64000             0.74200             0.00098
            81.55000            54.29600             0.63400             0.00098
            88.69100            53.78100             0.52300             0.00098
            96.28000            54.75400             0.22400             0.00098
           104.69100            56.27700           359.94600             0.00098
           113.07700            57.35200             0.16200             0.00098
           121.65300            57.65700             0.69300             0.00098
           131.19900            58.42100             1.15900             0.00098
           142.33400            59.90000             1.14700             0.00098
           153.46400            59.12000             0.80600             0.00098
           163.12900            56.28300             0.62300             0.00098
           171.59400            54.16200             0.46000             0.00098
           179.32800            54.01900             0.35400             0.00098
           187.11300            55.26200             0.14100             0.00098
           194.99500            56.62500             0.03200             0.00098
           202.58000            57.25600             0.32100             0.00098
           210.66800            57.23300             0.77800             0.00098
           220.70900            57.98800             1.04800             0.00098
           233.14600            59.97000             0.91300             0.00098
           244.51100            59.49900             0.79700             0.00098
           253.68500            56.64000             0.74200             0.00098
           261.55000            54.29600             0.63400             0.00098
           268.69100            53.78100             0.52300             0.00098
           276.28000            54.75400             0.22400             0.00098
           284.69100            56.27700           359.94600             0.00098
           293.07700            57.35200             0.16200             0.00098
           301.65300            57.65700             0.69300             0.00098
           311.19900            58.42100             1.15900             0.00098
           322.33400            59.90000             1.14700             0.00098
           333.46400            59.12000             0.80600             0.00098
           343.12900            56.28300             0.62300             0.00098
           351.59400            54.16200             0.46000             0.00098
           359.32800            54.01900             0.35400             0.00098
            11.63100            50.60700             0.24100             0.00098
            19.10900            51.34400             0.42900             0.00098
            27.49500            51.02900             0.67600             0.00098
            37.31300            50.42500             0.58900             0.00098
            48.63800            51.02300           359.97600             0.00098
            60.56800            52.05200           359.61800             0.00098
            71.01600            51.42100           359.77500             0.00098
            79.78300            49.75200           359.92000             0.00098
            87.35800            48.84600             0.10900             0.00098
            94.11600            49.09200             0.26500             0.00098
           100.85000            50.06300             0.28400             0.00098
           108.47700            51.01600             0.32800             0.00098
           117.50600            51.19300             0.50000             0.00098
           128.06600            50.96200             0.48200             0.00098
           139.46700            51.45600             0.06700             0.00098
           150.47700            51.90600           359.78100             0.00098
           160.27400            50.98600           359.77600             0.00098
           169.00700            49.41700           359.78700             0.00098
           177.01600            48.83200           359.92700             0.00098
           184.45900            49.43000             0.11900             0.00098
           191.63100            50.60700             0.24100             0.00098
           199.10900            51.34400             0.42900             0.00098
           207.49500            51.02900             0.67600             0.00098
           217.31300            50.42500             0.58900             0.00098
           228.63800            51.02300           359.97600             0.00098
           127.37300            87.65600           359.61800             0.00098
           251.01600            51.42100           359.77500             0.00098
           259.78300            49.75200           359.92000             0.00098
           111.55600            66.49600             0.10900             0.00098
           218.98300            49.09200             0.26500             0.00098
           280.85000            50.06300             0.28400             0.00098
           288.47700            51.01600             0.32800             0.00098
           297.50600            51.19300             0.50000             0.00098
           308.06600            50.96200             0.48200             0.00098
           319.46700            51.45600             0.06700             0.00098
           330.47700            51.90600           359.78100             0.00098
           340.27400            50.98600           359.77600             0.00098
           349.00700            49.41700           359.78700             0.00098
           357.01600            48.83200           359.92700             0.00098
             4.45900            49.43000             0.11900             0.00098
             8.53900            90.02500            41.55500             0.00098
            21.09000            89.73500            38.69400             0.00098
            31.19000            89.09100            37.25000             0.00098
            37.97900            89.37800            38.46400             0.00098
            43.13200            89.86900            39.60100             0.00098
            48.25400            90.30600            39.53200             0.00098
            54.25700            90.75300            38.23300             0.00098
            62.65100            90.64900            37.23300             0.00098
            73.73100            89.87700            39.29100             0.00098
            85.77600            89.92600            41.72200             0.00098
            98.32500            90.13800            41.64900             0.00098
           110.06700            89.80400            39.24800             0.00098
           120.30500            89.04300            37.65600             0.00098
           127.88800            89.22900            38.47300             0.00098
           133.72400            89.80700            39.31100             0.00098
           139.11000            90.37500            39.01100             0.00098
           144.90900            90.90800            37.69100             0.00098
           152.65700            90.81100            37.13200             0.00098
           162.67500            89.99200            39.55300             0.00098
           174.67600            89.82200            41.95700             0.00098
           188.53900            90.02500            41.55500             0.00098
           201.09000            89.73500            38.69400             0.00098
           211.19000            89.09100            37.25000             0.00098
           217.97900            89.37800            38.46400             0.00098
           223.13200            89.86900            39.60100             0.00098
           228.25400            90.30600            39.53200             0.00098
           234.25700            90.75300            38.23300             0.00098
           242.65100            90.64900            37.23300             0.00098
           253.73100            89.87700            39.29100             0.00098
           265.77600            89.92600            41.72200             0.00098
           278.32500            90.13800            41.64900             0.00098
           290.06700            89.80400            39.24800             0.00098
           300.30500            89.04300            37.65600             0.00098
           307.88800            89.22900            38.47300             0.00098
           313.72400            89.80700            39.31100             0.00098
           319.11000            90.37500            39.01100             0.00098
           324.90900            90.90800            37.69100             0.00098
           332.65700            90.81100            37.13200             0.00098
           342.67500            89.99200            39.55300             0.00098
           354.67600            89.82200            41.95700             0.00098
            11.84600            89.97500            40.62000             0.00098
            24.41200            89.32600            37.28500             0.00098
            34.30800            88.79200            36.34200             0.00098
            40.47800            89.36900            37.89400             0.00098
            45.33800            89.95500            39.02200             0.00098
            50.60500            90.44200            38.69500             0.00098
            57.34200            90.81100            37.04600             0.00098
            66.92400            90.26100            36.58200             0.00098
            77.99000            89.68100            39.36500             0.00098
            89.44200            89.93500            41.44800             0.00098
           101.66600            90.07400            40.76000             0.00098
           113.49900            89.39300            37.83100             0.00098
           123.52400            88.70200            36.67200             0.00098
           130.42500            89.21600            37.83900             0.00098
           135.92000            89.92000            38.67200             0.00098
           141.43200            90.54300            38.12500             0.00098
           147.97800            90.96900            36.55100             0.00098
           156.83900            90.41600            36.65100             0.00098
           166.90000            89.73500            39.66200             0.00098
           178.47700            89.80400            41.65200             0.00098
           191.84600            89.97500            40.62000             0.00098
           204.41200            89.32600            37.28500             0.00098
           214.30800            88.79200            36.34200             0.00098
           220.47800            89.36900            37.89400             0.00098
           225.33800            89.95500            39.02200             0.00098
           230.60500            90.44200            38.69500             0.00098
           237.34200            90.81100            37.04600             0.00098
           246.92400            90.26100            36.58200             0.00098
           257.99000            89.68100            39.36500             0.00098
           269.44200            89.93500            41.44800             0.00098
           281.66600            90.07400            40.76000             0.00098
           293.49900            89.39300            37.83100             0.00098
           303.52400            88.70200            36.67200             0.00098
           310.42500            89.21600            37.83900             0.00098
           315.92000            89.92000            38.67200             0.00098
           321.43200            90.54300            38.12500             0.00098
           327.97800            90.96900            36.55100             0.00098
           336.83900            90.41600            36.65100             0.00098
           346.90000            89.73500            39.66200             0.00098
           358.47700            89.80400            41.65200             0.00098
            15.15900            89.71400            38.22000             0.00098
            28.16100            88.26300            33.73000             0.00098
            38.13600            87.72300            32.66500             0.00098
            43.67900            89.03900            35.08100             0.00098
            48.08100            90.01200            36.83000             0.00098
            53.62300            90.63200            36.25000             0.00098
            61.84800            90.64700            33.99900             0.00098
            73.21100            89.35400            34.44100             0.00098
            83.56000            89.33500            37.93700             0.00098
            93.65800            89.84800            39.83500             0.00098
           105.18700            89.80000            38.27400             0.00098
           117.49800            88.35000            34.24100             0.00098
           127.37300            87.65600            33.11500             0.00098
           133.50000            88.85300            35.06600             0.00098
           138.54500            89.97100            36.45000             0.00098
           144.40900            90.74300            35.60700             0.00098
           152.60700            90.75500            33.51200             0.00098
           163.20000            89.50200            34.67300             0.00098
           172.63600            89.34200            38.32300             0.00098
           182.80000            89.70900            40.10100             0.00098
           195.15900            89.71400            38.22000             0.00098
           208.16100            88.26300            33.73000             0.00098
           218.13600            87.72300            32.66500             0.00098
           223.67900            89.03900            35.08100             0.00098
           228.08100            90.01200            36.83000             0.00098
           233.62300            90.63200            36.25000             0.00098
           241.84800            90.64700            33.99900             0.00098
           253.21100            89.35400            34.44100             0.00098
           263.56000            89.33500            37.93700             0.00098
           273.65800            89.84800            39.83500             0.00098
           285.18700            89.80000            38.27400             0.00098
           297.49800            88.35000            34.24100             0.00098
           307.37300            87.65600            33.11500             0.00098
           313.50000            88.85300            35.06600             0.00098
           318.54500            89.97100            36.45000             0.00098
           324.40900            90.74300            35.60700             0.00098
           332.60700            90.75500            33.51200             0.00098
           343.20000            89.50200            34.67300             0.00098
           352.63600            89.34200            38.32300             0.00098
             2.80000            89.70900            40.10100             0.00098
            19.51500            81.04000            20.13400             0.00098
            23.64600            69.55200             7.31400             0.00098
            28.49500            64.42100             3.80500             0.00098
            37.83400            65.80800             6.15300             0.00098
            53.69500            81.27000            19.12500             0.00098
            61.81400            86.30200            22.79200             0.00098
            71.24700            77.36400            14.89900             0.00098
            76.55400            65.54700             6.64600             0.00098
            84.10700            64.03400             6.62600             0.00098
            98.07300            76.63700            17.05100             0.00098
           110.14000            79.86800            18.27900             0.00098
           114.93000            69.85700             7.35300             0.00098
           119.86700            65.29700             4.35700             0.00098
           128.35900            66.85300             7.13600             0.00098
           142.77900            80.50700            18.88500             0.00098
           152.16700            85.34400            21.51400             0.00098
           161.34400            75.50300            13.00200             0.00098
           167.19700            65.02300             6.10700             0.00098
           175.46300            65.18300             7.34300             0.00098
           188.76600            79.62700            20.46500             0.00098
           199.51500            81.04000            20.13400             0.00098
           203.64600            69.55200             7.31400             0.00098
           208.49500            64.42100             3.80500             0.00098
           217.83400            65.80800             6.15300             0.00098
           233.69500            81.27000            19.12500             0.00098
           241.81400            86.30200            22.79200             0.00098
           251.24700            77.36400            14.89900             0.00098
           256.55400            65.54700             6.64600             0.00098
           264.10700            64.03400             6.62600             0.00098
           278.07300            76.63700            17.05100             0.00098
           290.14000            79.86800            18.27900             0.00098
           294.93000            69.85700             7.35300             0.00098
           299.86700            65.29700             4.35700             0.00098
           308.35900            66.85300             7.13600             0.00098
           322.77900            80.50700            18.88500             0.00098
           332.16700            85.34400            21.51400             0.00098
           341.34400            75.50300            13.00200             0.00098
           347.19700            65.02300             6.10700             0.00098
           355.46300            65.18300             7.34300             0.00098
             8.76600            79.62700            20.46500             0.00098
            13.29400            52.77000             0.27400             0.00098
            20.93400            53.12400             0.48700             0.00098
            30.10000            51.90400             0.79400             0.00098
            40.94200            51.05700             0.61100             0.00098
            52.41600            52.25100             0.04500             0.00098
            63.70300            53.51700           359.93100             0.00098
            73.92600            52.14500             0.07800             0.00098
            82.67400            50.21400             0.16700             0.00098
            89.87900            49.78000             0.31500             0.00098
            96.03600            50.77400             0.35300             0.00098
           102.59600            52.27100             0.26100             0.00098
           110.68300            53.02100             0.34400             0.00098
           120.49600            52.30100             0.63500             0.00098
           131.76800            51.59800             0.58900             0.00098
           142.83700            52.41100             0.20500             0.00098
           153.21700            53.11100             0.03400             0.00098
           163.16100            51.69700             0.00700             0.00098
           172.16500            50.04100             0.00600             0.00098
           179.94100            49.97700             0.15000             0.00098
           186.63600            51.27300             0.24300             0.00098
           193.29400            52.77000             0.27400             0.00098
           200.93400            53.12400             0.48700             0.00098
           210.10000            51.90400             0.79400             0.00098
           220.94200            51.05700             0.61100             0.00098
           184.45900            49.43000             0.04500             0.00098
           243.70300            53.51700           359.93100             0.00098
           253.92600            52.14500             0.07800             0.00098
           262.67400            50.21400             0.16700             0.00098
             8.49800            88.21000             0.31500             0.00098
           276.03600            50.77400             0.35300             0.00098
           282.59600            52.27100             0.26100             0.00098
           290.68300            53.02100             0.34400             0.00098
           300.49600            52.30100             0.63500             0.00098
           162.19400            49.99300             0.58900             0.00098
           322.83700            52.41100             0.20500             0.00098
           333.21700            53.11100             0.03400             0.00098
           343.16100            51.69700             0.00700             0.00098
           193.18700            49.89000             0.00600             0.00098
           359.94100            49.97700             0.15000             0.00098
             6.63600            51.27300             0.24300             0.00098
             7.66800            89.98500            44.00500             0.00098
            20.01600            89.99500            42.99900             0.00098
            29.13700            89.82000            42.42800             0.00098
            36.05200            89.84200            42.80200             0.00098
            41.99800            89.95100            43.25700             0.00098
            47.93200            90.05000            43.28200             0.00098
            54.44200            90.14800            42.81000             0.00098
            62.30800            90.12200            42.35400             0.00098
            72.20700            89.92600            42.95400             0.00098
            84.17400            89.98600            43.96900             0.00098
            97.14400            90.08200            44.19000             0.00098
           108.92700            89.98800            43.51500             0.00098
           118.49500            89.73000            42.74000             0.00098
           126.22200            89.70700            42.70000             0.00098
           132.75600            89.89400            42.88700             0.00098
           138.78300            90.11300            42.82200             0.00098
           144.94500            90.28800            42.50800             0.00098
           152.01600            90.25400            42.48100             0.00098
           161.07000            89.98500            43.34900             0.00098
           173.26500            89.88800            44.19000             0.00098
           187.66800            89.98500            44.00500             0.00098
           200.01600            89.99500            42.99900             0.00098
           209.13700            89.82000            42.42800             0.00098
           216.05200            89.84200            42.80200             0.00098
           221.99800            89.95100            43.25700             0.00098
           227.93200            90.05000            43.28200             0.00098
           234.44200            90.14800            42.81000             0.00098
           242.30800            90.12200            42.35400             0.00098
           252.20700            89.92600            42.95400             0.00098
           264.17400            89.98600            43.96900             0.00098
           277.14400            90.08200            44.19000             0.00098
           288.92700            89.98800            43.51500             0.00098
           298.49500            89.73000            42.74000             0.00098
           306.22200            89.70700            42.70000             0.00098
           312.75600            89.89400            42.88700             0.00098
           318.78300            90.11300            42.82200             0.00098
           324.94500            90.28800            42.50800             0.00098
           332.01600            90.25400            42.48100             0.00098
           341.07000            89.98500            43.34900             0.00098
           353.26500            89.88800            44.19000             0.00098
             8.60600            89.96800            43.91400             0.00098
            20.82800            89.94500            42.89400             0.00098
            29.93200            89.75300            42.27800             0.00098
            36.82600            89.79100            42.65000             0.00098
            42.74000            89.92300            43.13000             0.00098
            48.71900            90.03200            43.15100             0.00098
            55.43500            90.13800            42.59700             0.00098
            63.60500            90.08300            42.07300             0.00098
            73.65900            89.87800            42.80300             0.00098
            85.47900            89.97000            43.89000             0.00098
            98.17300            90.06100            44.11800             0.00098
           109.72800            89.93900            43.41200             0.00098
           119.25700            89.66300            42.57700             0.00098
           126.93600            89.66000            42.53200             0.00098
           133.46200            89.87600            42.75100             0.00098
           139.59000            90.10900            42.68600             0.00098
           145.96000            90.28500            42.30300             0.00098
           153.32000            90.21100            42.24200             0.00098
           162.48700            89.92800            43.19100             0.00098
           174.51300            89.86000            44.08900             0.00098
           188.60600            89.96800            43.91400             0.00098
           200.82800            89.94500            42.89400             0.00098
           209.93200            89.75300            42.27800             0.00098
           216.82600            89.79100            42.65000             0.00098
           222.74000            89.92300            43.13000             0.00098
           228.71900            90.03200            43.15100             0.00098
           235.43500            90.13800            42.59700             0.00098
           243.60500            90.08300            42.07300             0.00098
           253.65900            89.87800            42.80300             0.00098
           265.47900            89.97000            43.89000             0.00098
           278.17300            90.06100            44.11800             0.00098
           289.72800            89.93900            43.41200             0.00098
           299.25700            89.66300            42.57700             0.00098
           306.93600            89.66000            42.53200             0.00098
           313.46200            89.87600            42.75100             0.00098
           319.59000            90.10900            42.68600             0.00098
           325.96000            90.28500            42.30300             0.00098
           333.32000            90.21100            42.24200             0.00098
           342.48700            89.92800            43.19100             0.00098
           354.51300            89.86000            44.08900             0.00098
             9.36400            89.93700            43.68600             0.00098
            21.34000            89.86600            42.56100             0.00098
            30.64300            89.62000            41.78500             0.00098
            37.64200            89.69100            42.18500             0.00098
            43.56600            89.87500            42.76900             0.00098
            49.67800            90.01800            42.78200             0.00098
            56.79300            90.14100            42.04100             0.00098
            65.50200            90.02100            41.43000             0.00098
            75.66500            89.80900            42.43200             0.00098
            87.01600            89.94000            43.65900             0.00098
            99.10400            90.02800            43.88200             0.00098
           110.37700            89.86100            43.07200             0.00098
           119.91800            89.53300            42.09400             0.00098
           127.64800            89.55900            42.07700             0.00098
           134.22200            89.83700            42.38900             0.00098
           140.55600            90.11100            42.30500             0.00098
           147.35200            90.29300            41.75100             0.00098
           155.25200            90.14600            41.63600             0.00098
           164.51200            89.84100            42.80800             0.00098
           176.03200            89.82100            43.83400             0.00098
           189.36400            89.93700            43.68600             0.00098
           201.34000            89.86600            42.56100             0.00098
           210.64300            89.62000            41.78500             0.00098
           217.64200            89.69100            42.18500             0.00098
           223.56600            89.87500            42.76900             0.00098
           229.67800            90.01800            42.78200             0.00098
           236.79300            90.14100            42.04100             0.00098
           245.50200            90.02100            41.43000             0.00098
           255.66500            89.80900            42.43200             0.00098
           267.01600            89.94000            43.65900             0.00098
           279.10400            90.02800            43.88200             0.00098
           290.37700            89.86100            43.07200             0.00098
           299.91800            89.53300            42.09400             0.00098
           307.64800            89.55900            42.07700             0.00098
           314.22200            89.83700            42.38900             0.00098
           320.55600            90.11100            42.30500             0.00098
           327.35200            90.29300            41.75100             0.00098
           335.25200            90.14600            41.63600             0.00098
           344.51200            89.84100            42.80800             0.00098
           356.03200            89.82100            43.83400             0.00098
            10.50400            89.86300            42.96500             0.00098
            22.13100            89.65900            41.43100             0.00098
            31.94100            89.23400            40.16700             0.00098
            39.14000            89.42000            40.75600             0.00098
            45.04300            89.77000            41.66500             0.00098
            51.48400            90.01800            41.62800             0.00098
            59.51400            90.15900            40.32300             0.00098
            69.39500            89.79700            39.71200             0.00098
            79.37900            89.64100            41.44200             0.00098
            89.51600            89.87000            42.95400             0.00098
           100.47000            89.95200            43.13300             0.00098
           111.36100            89.66700            41.93400             0.00098
           121.14300            89.16500            40.55900             0.00098
           128.96300            89.28100            40.68300             0.00098
           135.55700            89.73600            41.27800             0.00098
           142.31300            90.13000            41.10100             0.00098
           150.13700            90.31200            40.00100             0.00098
           159.17900            89.91600            39.98100             0.00098
           168.31900            89.64500            41.81900             0.00098
           178.56100            89.74100            43.12500             0.00098
           190.50400            89.86300            42.96500             0.00098
           202.13100            89.65900            41.43100             0.00098
           211.94100            89.23400            40.16700             0.00098
           219.14000            89.42000            40.75600             0.00098
           225.04300            89.77000            41.66500             0.00098
           231.48400            90.01800            41.62800             0.00098
           239.51400            90.15900            40.32300             0.00098
           249.39500            89.79700            39.71200             0.00098
           259.37900            89.64100            41.44200             0.00098
           269.51600            89.87000            42.95400             0.00098
           280.47000            89.95200            43.13300             0.00098
           291.36100            89.66700            41.93400             0.00098
           301.14300            89.16500            40.55900             0.00098
           308.96300            89.28100            40.68300             0.00098
           315.55700            89.73600            41.27800             0.00098
           322.31300            90.13000            41.10100             0.00098
           330.13700            90.31200            40.00100             0.00098
           339.17900            89.91600            39.98100             0.00098
           348.31900            89.64500            41.81900             0.00098
           358.56100            89.74100            43.12500             0.00098
            17.32300            88.34700            35.36600             0.00098
            29.73600            83.35600            26.21200             0.00098
            31.22300            66.71700             8.13400             0.00098
            38.76800            63.97100             7.10100             0.00098
            54.19900            78.16700            18.79500             0.00098
            64.56400            83.48400            22.94400             0.00098
            73.17100            71.51400            12.30000             0.00098
            79.77700            63.66000             7.08500             0.00098
            90.99200            75.20000            18.29200             0.00098
            99.58700            88.01200            34.41300             0.00098
           107.92800            88.35300            35.08800             0.00098
           119.83000            84.13100            27.51900             0.00098
           123.07900            69.22200            10.66300             0.00098
           128.94800            64.92200             8.07600             0.00098
           142.33900            75.35500            16.66600             0.00098
           154.71800            80.89600            19.85200             0.00098
           163.12900            69.52100            10.29100             0.00098
           170.76700            64.33500             7.46200             0.00098
           182.43000            79.72700            23.14600             0.00098
           188.49800            88.21000            35.56100             0.00098
           197.32300            88.34700            35.36600             0.00098
           209.73600            83.35600            26.21200             0.00098
           211.22300            66.71700             8.13400             0.00098
           218.76800            63.97100             7.10100             0.00098
           234.19900            78.16700            18.79500             0.00098
           244.56400            83.48400            22.94400             0.00098
           253.17100            71.51400            12.30000             0.00098
           259.77700            63.66000             7.08500             0.00098
           270.99200            75.20000            18.29200             0.00098
           279.58700            88.01200            34.41300             0.00098
           287.92800            88.35300            35.08800             0.00098
           299.83000            84.13100            27.51900             0.00098
           303.07900            69.22200            10.66300             0.00098
           308.94800            64.92200             8.07600             0.00098
           322.33900            75.35500            16.66600             0.00098
           334.71800            80.89600            19.85200             0.00098
           343.12900            69.52100            10.29100             0.00098
           350.76700            64.33500             7.46200             0.00098
             2.43000            79.72700            23.14600             0.00098
             8.49800            88.21000            35.56100             0.00098
             8.25500            69.87500             4.25500             0.00098
            17.65600            70.41200             1.86300             0.00098
            26.46900            70.84900             1.96100             0.00098
            35.46200            71.42500             3.64900             0.00098
            44.78300            74.96300             6.45000             0.00098
            52.46800            80.59000             8.57500             0.00098
            59.20300            82.45800             8.24300             0.00098
            67.66500            78.60100             7.77100             0.00098
            77.24100            72.05100             7.52500             0.00098
            87.15100            68.58100             6.34700             0.00098
            98.09400            68.58600             3.24400             0.00098
           108.43600            70.27900             1.22400             0.00098
           117.51600            71.58900             1.92000             0.00098
           125.85900            72.31200             4.19400             0.00098
           134.17600            75.39000             7.37600             0.00098
           141.78600            80.04700             9.09200             0.00098
           149.18500            81.02500             7.84800             0.00098
           158.19300            77.12800             6.86000             0.00098
           168.14100            71.63100             6.90700             0.00098
           178.13800            69.54500             6.65500             0.00098
           188.25500            69.87500             4.25500             0.00098
           197.65600            70.41200             1.86300             0.00098
           206.46900            70.84900             1.96100             0.00098
           215.46200            71.42500             3.64900             0.00098
